# Neutrino-Ar40 nc cross section (10^-38 cm^2/GeV, natural abundance) # 
# log(energy in GeV)  nu_e      nu_mu      nu_tau      nu_e_bar      nu_mu_bar    nu_tau_bar # 

-5.267349321983568   0.0   0.0   0.0   0.0   0.0   0.0
-5.249198354420286   0.0   0.0   0.0   0.0   0.0   0.0
-5.231370979683245   0.0   0.0   0.0   0.0   0.0   0.0
-5.213855861644066   0.0   0.0   0.0   0.0   0.0   0.0
-5.196642249626443   0.0   0.0   0.0   0.0   0.0   0.0
-5.179719938773375   0.0   0.0   0.0   0.0   0.0   0.0
-5.1630792337124   0.0   0.0   0.0   0.0   0.0   0.0
-5.146710915194865   0.0   0.0   0.0   0.0   0.0   0.0
-5.130606209421823   0.0   0.0   0.0   0.0   0.0   0.0
-5.114756759801046   0.0   0.0   0.0   0.0   0.0   0.0
-5.099154600907518   6.993976055204275e-07   6.993976055204275e-07   6.993976055204275e-07   6.993976055204275e-07   6.993976055204275e-07   6.993976055204275e-07
-5.083792134444297   2.758930252932314e-06   2.758930252932314e-06   2.758930252932314e-06   2.758930252932314e-06   2.758930252932314e-06   2.758930252932314e-06
-5.068662107022123   4.818462900344181e-06   4.818462900344181e-06   4.818462900344181e-06   4.818462900344181e-06   4.818462900344181e-06   4.818462900344181e-06
-5.053757589595104   6.877995547756068e-06   6.877995547756068e-06   6.877995547756068e-06   6.877995547756068e-06   6.877995547756068e-06   6.877995547756068e-06
-5.039071958406543   8.937528195167935e-06   8.937528195167935e-06   8.937528195167935e-06   8.937528195167935e-06   8.937528195167935e-06   8.937528195167935e-06
-5.024598877313762   1.0997060842579803e-05   1.0997060842579803e-05   1.0997060842579803e-05   1.0997060842579803e-05   1.0997060842579803e-05   1.0997060842579803e-05
-5.01033228137385   1.305659348999167e-05   1.305659348999167e-05   1.305659348999167e-05   1.305659348999167e-05   1.305659348999167e-05   1.305659348999167e-05
-4.996266361583923   1.5116126137403557e-05   1.5116126137403557e-05   1.5116126137403557e-05   1.5116126137403557e-05   1.5116126137403557e-05   1.5116126137403557e-05
-4.982395550679802   1.7175658784815424e-05   1.7175658784815424e-05   1.7175658784815424e-05   1.7175658784815424e-05   1.7175658784815424e-05   1.7175658784815424e-05
-4.968714509906206   1.923519143222731e-05   1.923519143222731e-05   1.923519143222731e-05   1.923519143222731e-05   1.923519143222731e-05   1.923519143222731e-05
-4.955218116679793   2.1294724079639176e-05   2.1294724079639176e-05   2.1294724079639176e-05   2.1294724079639176e-05   2.1294724079639176e-05   2.1294724079639176e-05
-4.941901453073702   2.3354256727051046e-05   2.3354256727051046e-05   2.3354256727051046e-05   2.3354256727051046e-05   2.3354256727051046e-05   2.3354256727051046e-05
-4.9287597950588085   2.5413789374462912e-05   2.5413789374462912e-05   2.5413789374462912e-05   2.5413789374462912e-05   2.5413789374462912e-05   2.5413789374462912e-05
-4.915788602442802   2.74733220218748e-05   2.74733220218748e-05   2.74733220218748e-05   2.74733220218748e-05   2.74733220218748e-05   2.74733220218748e-05
-4.902983509453467   2.9532854669286665e-05   2.9532854669286665e-05   2.9532854669286665e-05   2.9532854669286665e-05   2.9532854669286665e-05   2.9532854669286665e-05
-4.890340315917283   3.1592387316698555e-05   3.1592387316698555e-05   3.1592387316698555e-05   3.1592387316698555e-05   3.1592387316698555e-05   3.1592387316698555e-05
-4.877854978988766   3.365191996411042e-05   3.365191996411042e-05   3.365191996411042e-05   3.365191996411042e-05   3.365191996411042e-05   3.365191996411042e-05
-4.865523605389776   3.571145261152229e-05   3.571145261152229e-05   3.571145261152229e-05   3.571145261152229e-05   3.571145261152229e-05   3.571145261152229e-05
-4.8533424441215285   3.73490073492143e-05   3.73490073492143e-05   3.73490073492143e-05   3.73490073492143e-05   3.73490073492143e-05   3.73490073492143e-05
-4.841307879615175   3.669118774282608e-05   3.669118774282608e-05   3.669118774282608e-05   3.669118774282608e-05   3.669118774282608e-05   3.669118774282608e-05
-4.829416425289654   3.6033368136437836e-05   3.6033368136437836e-05   3.6033368136437836e-05   3.6033368136437836e-05   3.6033368136437836e-05   3.6033368136437836e-05
-4.817664717488096   3.537554853004961e-05   3.537554853004961e-05   3.537554853004961e-05   3.537554853004961e-05   3.537554853004961e-05   3.537554853004961e-05
-4.8060495097663996   3.471772892366139e-05   3.471772892366139e-05   3.471772892366139e-05   3.471772892366139e-05   3.471772892366139e-05   3.471772892366139e-05
-4.79456766750971   3.405990931727316e-05   3.405990931727316e-05   3.405990931727316e-05   3.405990931727316e-05   3.405990931727316e-05   3.405990931727316e-05
-4.783216162854482   3.340208971088493e-05   3.340208971088493e-05   3.340208971088493e-05   3.340208971088493e-05   3.340208971088493e-05   3.340208971088493e-05
-4.771992069895517   3.2744270104496695e-05   3.2744270104496695e-05   3.2744270104496695e-05   3.2744270104496695e-05   3.2744270104496695e-05   3.2744270104496695e-05
-4.760892560159027   3.208645049810847e-05   3.208645049810847e-05   3.208645049810847e-05   3.208645049810847e-05   3.208645049810847e-05   3.208645049810847e-05
-4.749914898324179   3.142863089172024e-05   3.142863089172024e-05   3.142863089172024e-05   3.142863089172024e-05   3.142863089172024e-05   3.142863089172024e-05
-4.739056438176942   3.077081128533201e-05   3.077081128533201e-05   3.077081128533201e-05   3.077081128533201e-05   3.077081128533201e-05   3.077081128533201e-05
-4.728314618781261   3.0112991678943785e-05   3.0112991678943785e-05   3.0112991678943785e-05   3.0112991678943785e-05   3.0112991678943785e-05   3.0112991678943785e-05
-4.7176869608536895   2.9455172072555547e-05   2.9455172072555547e-05   2.9455172072555547e-05   2.9455172072555547e-05   2.9455172072555547e-05   2.9455172072555547e-05
-4.707171063328666   2.8797352466167332e-05   2.8797352466167332e-05   2.8797352466167332e-05   2.8797352466167332e-05   2.8797352466167332e-05   2.8797352466167332e-05
-4.6967646001025   2.8139532859779094e-05   2.8139532859779094e-05   2.8139532859779094e-05   2.8139532859779094e-05   2.8139532859779094e-05   2.8139532859779094e-05
-4.6864653169450525   2.748171325339087e-05   2.748171325339087e-05   2.748171325339087e-05   2.748171325339087e-05   2.748171325339087e-05   2.748171325339087e-05
-4.676271028568826   2.682389364700264e-05   2.682389364700264e-05   2.682389364700264e-05   2.682389364700264e-05   2.682389364700264e-05   2.682389364700264e-05
-4.666179615845958   2.6166074040614412e-05   2.6166074040614412e-05   2.6166074040614412e-05   2.6166074040614412e-05   2.6166074040614412e-05   2.6166074040614412e-05
-4.656189023164233   2.5508254434226187e-05   2.5508254434226187e-05   2.5508254434226187e-05   2.5508254434226187e-05   2.5508254434226187e-05   2.5508254434226187e-05
-4.646297255913869   2.485043482783795e-05   2.485043482783795e-05   2.485043482783795e-05   2.485043482783795e-05   2.485043482783795e-05   2.485043482783795e-05
-4.636502378097399   2.4192615221449734e-05   2.4192615221449734e-05   2.4192615221449734e-05   2.4192615221449734e-05   2.4192615221449734e-05   2.4192615221449734e-05
-4.626802510055464   2.3534795615061496e-05   2.3534795615061496e-05   2.3534795615061496e-05   2.3534795615061496e-05   2.3534795615061496e-05   2.3534795615061496e-05
-4.6171958263018595   2.287697600867327e-05   2.287697600867327e-05   2.287697600867327e-05   2.287697600867327e-05   2.287697600867327e-05   2.287697600867327e-05
-4.607680553461583   2.2935602578755258e-05   2.2935602578755258e-05   2.2935602578755258e-05   2.2935602578755258e-05   2.2935602578755258e-05   2.2935602578755258e-05
-4.598254968306055   2.2999153177541497e-05   2.2999153177541497e-05   2.2999153177541497e-05   2.2999153177541497e-05   2.2999153177541497e-05   2.2999153177541497e-05
-4.588917395880086   2.3062703776327733e-05   2.3062703776327733e-05   2.3062703776327733e-05   2.3062703776327733e-05   2.3062703776327733e-05   2.3062703776327733e-05
-4.579666207715477   2.312625437511397e-05   2.312625437511397e-05   2.312625437511397e-05   2.312625437511397e-05   2.312625437511397e-05   2.312625437511397e-05
-4.570499820126498   2.3189804973900208e-05   2.3189804973900208e-05   2.3189804973900208e-05   2.3189804973900208e-05   2.3189804973900208e-05   2.3189804973900208e-05
-4.561416692582785   2.3253355572686443e-05   2.3253355572686443e-05   2.3253355572686443e-05   2.3253355572686443e-05   2.3253355572686443e-05   2.3253355572686443e-05
-4.552415326155466   2.3316906171472682e-05   2.3316906171472682e-05   2.3316906171472682e-05   2.3316906171472682e-05   2.3316906171472682e-05   2.3316906171472682e-05
-4.543494262032605   2.3380456770258918e-05   2.3380456770258918e-05   2.3380456770258918e-05   2.3380456770258918e-05   2.3380456770258918e-05   2.3380456770258918e-05
-4.534652080100275   2.3444007369045157e-05   2.3444007369045157e-05   2.3444007369045157e-05   2.3444007369045157e-05   2.3444007369045157e-05   2.3444007369045157e-05
-4.5258873975858265   2.3507557967831393e-05   2.3507557967831393e-05   2.3507557967831393e-05   2.3507557967831393e-05   2.3507557967831393e-05   2.3507557967831393e-05
-4.517198867760081   2.3571108566617632e-05   2.3571108566617632e-05   2.3571108566617632e-05   2.3571108566617632e-05   2.3571108566617632e-05   2.3571108566617632e-05
-4.508585178695442   2.3634659165403868e-05   2.3634659165403868e-05   2.3634659165403868e-05   2.3634659165403868e-05   2.3634659165403868e-05   2.3634659165403868e-05
-4.500045052077014   2.3698209764190107e-05   2.3698209764190107e-05   2.3698209764190107e-05   2.3698209764190107e-05   2.3698209764190107e-05   2.3698209764190107e-05
-4.49157724206408   2.3761760362976343e-05   2.3761760362976343e-05   2.3761760362976343e-05   2.3761760362976343e-05   2.3761760362976343e-05   2.3761760362976343e-05
-4.483180534199368   2.382531096176258e-05   2.382531096176258e-05   2.382531096176258e-05   2.382531096176258e-05   2.382531096176258e-05   2.382531096176258e-05
-4.474853744363731   2.3888861560548818e-05   2.3888861560548818e-05   2.3888861560548818e-05   2.3888861560548818e-05   2.3888861560548818e-05   2.3888861560548818e-05
-4.466595717773992   2.3952412159335057e-05   2.3952412159335057e-05   2.3952412159335057e-05   2.3952412159335057e-05   2.3952412159335057e-05   2.3952412159335057e-05
-4.458405328021832   2.4015962758121292e-05   2.4015962758121292e-05   2.4015962758121292e-05   2.4015962758121292e-05   2.4015962758121292e-05   2.4015962758121292e-05
-4.450281476151714   2.407951335690753e-05   2.407951335690753e-05   2.407951335690753e-05   2.407951335690753e-05   2.407951335690753e-05   2.407951335690753e-05
-4.4422230897759665   2.4143063955693767e-05   2.4143063955693767e-05   2.4143063955693767e-05   2.4143063955693767e-05   2.4143063955693767e-05   2.4143063955693767e-05
-4.434229122225229   2.4206614554480003e-05   2.4206614554480003e-05   2.4206614554480003e-05   2.4206614554480003e-05   2.4206614554480003e-05   2.4206614554480003e-05
-4.426298551732599   2.4270165153266242e-05   2.4270165153266242e-05   2.4270165153266242e-05   2.4270165153266242e-05   2.4270165153266242e-05   2.4270165153266242e-05
-4.41843038064986   2.4333715752052478e-05   2.4333715752052478e-05   2.4333715752052478e-05   2.4333715752052478e-05   2.4333715752052478e-05   2.4333715752052478e-05
-4.410623634694317   2.4397266350838717e-05   2.4397266350838717e-05   2.4397266350838717e-05   2.4397266350838717e-05   2.4397266350838717e-05   2.4397266350838717e-05
-4.402877362224796   2.4460816949624953e-05   2.4460816949624953e-05   2.4460816949624953e-05   2.4460816949624953e-05   2.4460816949624953e-05   2.4460816949624953e-05
-4.395190633545478   2.4524367548411192e-05   2.4524367548411192e-05   2.4524367548411192e-05   2.4524367548411192e-05   2.4524367548411192e-05   2.4524367548411192e-05
-4.387562540236275   2.4587918147197428e-05   2.4587918147197428e-05   2.4587918147197428e-05   2.4587918147197428e-05   2.4587918147197428e-05   2.4587918147197428e-05
-4.379992194508562   2.4651468745983667e-05   2.4651468745983667e-05   2.4651468745983667e-05   2.4651468745983667e-05   2.4651468745983667e-05   2.4651468745983667e-05
-4.3724787285851106   2.4715019344769903e-05   2.4715019344769903e-05   2.4715019344769903e-05   2.4715019344769903e-05   2.4715019344769903e-05   2.4715019344769903e-05
-4.36502129410314   2.477856994355614e-05   2.477856994355614e-05   2.477856994355614e-05   2.477856994355614e-05   2.477856994355614e-05   2.477856994355614e-05
-4.357619061539469   2.4842120542342377e-05   2.4842120542342377e-05   2.4842120542342377e-05   2.4842120542342377e-05   2.4842120542342377e-05   2.4842120542342377e-05
-4.350271219656783   2.4905671141128613e-05   2.4905671141128613e-05   2.4905671141128613e-05   2.4905671141128613e-05   2.4905671141128613e-05   2.4905671141128613e-05
-4.342976974970094   2.4969221739914852e-05   2.4969221739914852e-05   2.4969221739914852e-05   2.4969221739914852e-05   2.4969221739914852e-05   2.4969221739914852e-05
-4.33573555123253   2.5032772338701088e-05   2.5032772338701088e-05   2.5032772338701088e-05   2.5032772338701088e-05   2.5032772338701088e-05   2.5032772338701088e-05
-4.328546188939597   2.5096322937487327e-05   2.5096322937487327e-05   2.5096322937487327e-05   2.5096322937487327e-05   2.5096322937487327e-05   2.5096322937487327e-05
-4.321408144851139   2.5159873536273566e-05   2.5159873536273566e-05   2.5159873536273566e-05   2.5159873536273566e-05   2.5159873536273566e-05   2.5159873536273566e-05
-4.314320691530246   2.5223424135059802e-05   2.5223424135059802e-05   2.5223424135059802e-05   2.5223424135059802e-05   2.5223424135059802e-05   2.5223424135059802e-05
-4.30728311689837   2.528697473384604e-05   2.528697473384604e-05   2.528697473384604e-05   2.528697473384604e-05   2.528697473384604e-05   2.528697473384604e-05
-4.300294723806006   2.5350525332632277e-05   2.5350525332632277e-05   2.5350525332632277e-05   2.5350525332632277e-05   2.5350525332632277e-05   2.5350525332632277e-05
-4.293354829618257   2.5414075931418513e-05   2.5414075931418513e-05   2.5414075931418513e-05   2.5414075931418513e-05   2.5414075931418513e-05   2.5414075931418513e-05
-4.286462765814683   2.5477626530204752e-05   2.5477626530204752e-05   2.5477626530204752e-05   2.5477626530204752e-05   2.5477626530204752e-05   2.5477626530204752e-05
-4.279617877602854   2.568109612260406e-05   2.568109612260406e-05   2.568109612260406e-05   2.568109612260406e-05   2.568109612260406e-05   2.568109612260406e-05
-4.272819523545026   2.594462850250556e-05   2.594462850250556e-05   2.594462850250556e-05   2.594462850250556e-05   2.594462850250556e-05   2.594462850250556e-05
-4.266067075197434   2.620816088240705e-05   2.620816088240705e-05   2.620816088240705e-05   2.620816088240705e-05   2.620816088240705e-05   2.620816088240705e-05
-4.2593599167616665   2.647169326230855e-05   2.647169326230855e-05   2.647169326230855e-05   2.647169326230855e-05   2.647169326230855e-05   2.647169326230855e-05
-4.252697444747677   2.6735225642210036e-05   2.6735225642210036e-05   2.6735225642210036e-05   2.6735225642210036e-05   2.6735225642210036e-05   2.6735225642210036e-05
-4.246079067647923   2.6998758022111536e-05   2.6998758022111536e-05   2.6998758022111536e-05   2.6998758022111536e-05   2.6998758022111536e-05   2.6998758022111536e-05
-4.239504205622228   2.7262290402013035e-05   2.7262290402013035e-05   2.7262290402013035e-05   2.7262290402013035e-05   2.7262290402013035e-05   2.7262290402013035e-05
-4.232972290192945   2.7525822781914525e-05   2.7525822781914525e-05   2.7525822781914525e-05   2.7525822781914525e-05   2.7525822781914525e-05   2.7525822781914525e-05
-4.226482763949993   2.7789355161816024e-05   2.7789355161816024e-05   2.7789355161816024e-05   2.7789355161816024e-05   2.7789355161816024e-05   2.7789355161816024e-05
-4.220035080265418   2.805288754171751e-05   2.805288754171751e-05   2.805288754171751e-05   2.805288754171751e-05   2.805288754171751e-05   2.805288754171751e-05
-4.213628703017087   2.831641992161901e-05   2.831641992161901e-05   2.831641992161901e-05   2.831641992161901e-05   2.831641992161901e-05   2.831641992161901e-05
-4.207263106321189   2.857995230152051e-05   2.857995230152051e-05   2.857995230152051e-05   2.857995230152051e-05   2.857995230152051e-05   2.857995230152051e-05
-4.2009377742731795   2.8843484681422e-05   2.8843484681422e-05   2.8843484681422e-05   2.8843484681422e-05   2.8843484681422e-05   2.8843484681422e-05
-4.194652200696878   2.9614212557450802e-05   2.9614212557450802e-05   2.9614212557450802e-05   2.9614212557450802e-05   2.9614212557450802e-05   2.9614212557450802e-05
-4.188405888901405   3.063750097193972e-05   3.063750097193972e-05   3.063750097193972e-05   3.063750097193972e-05   3.063750097193972e-05   3.063750097193972e-05
-4.18219835144565   3.166078938642868e-05   3.166078938642868e-05   3.166078938642868e-05   3.166078938642868e-05   3.166078938642868e-05   3.166078938642868e-05
-4.176029109910014   3.268407780091763e-05   3.268407780091763e-05   3.268407780091763e-05   3.268407780091763e-05   3.268407780091763e-05   3.268407780091763e-05
-4.169897694675154   3.370736621540655e-05   3.370736621540655e-05   3.370736621540655e-05   3.370736621540655e-05   3.370736621540655e-05   3.370736621540655e-05
-4.1638036447074525   3.473065462989551e-05   3.473065462989551e-05   3.473065462989551e-05   3.473065462989551e-05   3.473065462989551e-05   3.473065462989551e-05
-4.157746507351008   3.575394304438443e-05   3.575394304438443e-05   3.575394304438443e-05   3.575394304438443e-05   3.575394304438443e-05   3.575394304438443e-05
-4.151725838125865   3.677723145887339e-05   3.677723145887339e-05   3.677723145887339e-05   3.677723145887339e-05   3.677723145887339e-05   3.677723145887339e-05
-4.145741200532293   3.7800519873362306e-05   3.7800519873362306e-05   3.7800519873362306e-05   3.7800519873362306e-05   3.7800519873362306e-05   3.7800519873362306e-05
-4.139792165860892   3.8823808287851267e-05   3.8823808287851267e-05   3.8823808287851267e-05   3.8823808287851267e-05   3.8823808287851267e-05   3.8823808287851267e-05
-4.1338783130082986   3.984709670234023e-05   3.984709670234023e-05   3.984709670234023e-05   3.984709670234023e-05   3.984709670234023e-05   3.984709670234023e-05
-4.127999228298323   4.087038511682914e-05   4.087038511682914e-05   4.087038511682914e-05   4.087038511682914e-05   4.087038511682914e-05   4.087038511682914e-05
-4.1221545053083055   4.18936735313181e-05   4.18936735313181e-05   4.18936735313181e-05   4.18936735313181e-05   4.18936735313181e-05   4.18936735313181e-05
-4.116343744700521   4.291696194580702e-05   4.291696194580702e-05   4.291696194580702e-05   4.291696194580702e-05   4.291696194580702e-05   4.291696194580702e-05
-4.1105665540584555   4.3940250360295974e-05   4.3940250360295974e-05   4.3940250360295974e-05   4.3940250360295974e-05   4.3940250360295974e-05   4.3940250360295974e-05
-4.104822547727777   4.4963538774784935e-05   4.4963538774784935e-05   4.4963538774784935e-05   4.4963538774784935e-05   4.4963538774784935e-05   4.4963538774784935e-05
-4.09911134666186   4.5986827189273854e-05   4.5986827189273854e-05   4.5986827189273854e-05   4.5986827189273854e-05   4.5986827189273854e-05   4.5986827189273854e-05
-4.093432578271681   4.701011560376281e-05   4.701011560376281e-05   4.701011560376281e-05   4.701011560376281e-05   4.701011560376281e-05   4.701011560376281e-05
-4.087785876279969   4.8033404018251735e-05   4.8033404018251735e-05   4.8033404018251735e-05   4.8033404018251735e-05   4.8033404018251735e-05   4.8033404018251735e-05
-4.082170880579437   4.905669243274069e-05   4.905669243274069e-05   4.905669243274069e-05   4.905669243274069e-05   4.905669243274069e-05   4.905669243274069e-05
-4.076587237094976   5.007998084722961e-05   5.007998084722961e-05   5.007998084722961e-05   5.007998084722961e-05   5.007998084722961e-05   5.007998084722961e-05
