# Neutrino-Ar40 nc cross section (10^-38 cm^2/GeV, natural abundance) # 
# log(energy in GeV)  nu_e      nu_mu      nu_tau      nu_e_bar      nu_mu_bar    nu_tau_bar # 

-5.267349321983568   0.0   0.0   0.0   0.0   0.0   0.0
-5.249216341812966   0.0   0.0   0.0   0.0   0.0   0.0
-5.231406319122076   0.0   0.0   0.0   0.0   0.0   0.0
-5.213907950860679   0.0   0.0   0.0   0.0   0.0   0.0
-5.196710517173588   0.0   0.0   0.0   0.0   0.0   0.0
-5.179803841957169   0.0   0.0   0.0   0.0   0.0   0.0
-5.163178256695107   0.0   0.0   0.0   0.0   0.0   0.0
-5.146824567251627   0.0   0.0   0.0   0.0   0.0   0.0
-5.13073402333657   0.0   0.0   0.0   0.0   0.0   0.0
-5.114898290388478   0.0   0.0   0.0   0.0   0.0   0.0
-5.099309423649438   1.5142512378725662e-06   1.5142512378725662e-06   1.5142512378725662e-06   1.5142512378725662e-06   1.5142512378725662e-06   1.5142512378725662e-06
-5.083959844229854   6.103998955424038e-06   6.103998955424038e-06   6.103998955424038e-06   6.103998955424038e-06   6.103998955424038e-06   6.103998955424038e-06
-5.068842316982591   1.069374667297551e-05   1.069374667297551e-05   1.069374667297551e-05   1.069374667297551e-05   1.069374667297551e-05   1.069374667297551e-05
-5.0539499300248245   1.5283494390527024e-05   1.5283494390527024e-05   1.5283494390527024e-05   1.5283494390527024e-05   1.5283494390527024e-05   1.5283494390527024e-05
-5.039276075762491   1.9873242108078537e-05   1.9873242108078537e-05   1.9873242108078537e-05   1.9873242108078537e-05   1.9873242108078537e-05   1.9873242108078537e-05
-5.02481443328695   2.446298982563001e-05   2.446298982563001e-05   2.446298982563001e-05   2.446298982563001e-05   2.446298982563001e-05   2.446298982563001e-05
-5.010558952026489   2.9052737543181482e-05   2.9052737543181482e-05   2.9052737543181482e-05   2.9052737543181482e-05   2.9052737543181482e-05   2.9052737543181482e-05
-4.99650383654681   3.3642485260733e-05   3.3642485260733e-05   3.3642485260733e-05   3.3642485260733e-05   3.3642485260733e-05   3.3642485260733e-05
-4.982643532404967   3.8232232978284515e-05   3.8232232978284515e-05   3.8232232978284515e-05   3.8232232978284515e-05   3.8232232978284515e-05   3.8232232978284515e-05
-4.968972712970318   4.2821980695835983e-05   4.2821980695835983e-05   4.2821980695835983e-05   4.2821980695835983e-05   4.2821980695835983e-05   4.2821980695835983e-05
-4.955486267134243   4.741172841338745e-05   4.741172841338745e-05   4.741172841338745e-05   4.741172841338745e-05   4.741172841338745e-05   4.741172841338745e-05
-4.942179287837648   5.200147613093897e-05   5.200147613093897e-05   5.200147613093897e-05   5.200147613093897e-05   5.200147613093897e-05   5.200147613093897e-05
-4.929047061351838   5.6591223848490485e-05   5.6591223848490485e-05   5.6591223848490485e-05   5.6591223848490485e-05   5.6591223848490485e-05   5.6591223848490485e-05
-4.916085057254132   6.118097156604195e-05   6.118097156604195e-05   6.118097156604195e-05   6.118097156604195e-05   6.118097156604195e-05   6.118097156604195e-05
-4.903288919044903   6.577071928359342e-05   6.577071928359342e-05   6.577071928359342e-05   6.577071928359342e-05   6.577071928359342e-05   6.577071928359342e-05
-4.890654455357392   7.03604670011449e-05   7.03604670011449e-05   7.03604670011449e-05   7.03604670011449e-05   7.03604670011449e-05   7.03604670011449e-05
-4.878177631715937   7.495021471869641e-05   7.495021471869641e-05   7.495021471869641e-05   7.495021471869641e-05   7.495021471869641e-05   7.495021471869641e-05
-4.865854562802045   7.953996243624792e-05   7.953996243624792e-05   7.953996243624792e-05   7.953996243624792e-05   7.953996243624792e-05   7.953996243624792e-05
-4.853681505191228   8.335810481904629e-05   8.335810481904629e-05   8.335810481904629e-05   8.335810481904629e-05   8.335810481904629e-05   8.335810481904629e-05
-4.841654850526627   8.189212852545603e-05   8.189212852545603e-05   8.189212852545603e-05   8.189212852545603e-05   8.189212852545603e-05   8.189212852545603e-05
-4.829771119098263   8.042615223186576e-05   8.042615223186576e-05   8.042615223186576e-05   8.042615223186576e-05   8.042615223186576e-05   8.042615223186576e-05
-4.8180269537993565   7.896017593827551e-05   7.896017593827551e-05   7.896017593827551e-05   7.896017593827551e-05   7.896017593827551e-05   7.896017593827551e-05
-4.806419114433428   7.749419964468525e-05   7.749419964468525e-05   7.749419964468525e-05   7.749419964468525e-05   7.749419964468525e-05   7.749419964468525e-05
-4.7949444723480426   7.6028223351095e-05   7.6028223351095e-05   7.6028223351095e-05   7.6028223351095e-05   7.6028223351095e-05   7.6028223351095e-05
-4.783600005372951   7.456224705750475e-05   7.456224705750475e-05   7.456224705750475e-05   7.456224705750475e-05   7.456224705750475e-05   7.456224705750475e-05
-4.772382793042154   7.309627076391447e-05   7.309627076391447e-05   7.309627076391447e-05   7.309627076391447e-05   7.309627076391447e-05   7.309627076391447e-05
-4.76129001208098   7.163029447032421e-05   7.163029447032421e-05   7.163029447032421e-05   7.163029447032421e-05   7.163029447032421e-05   7.163029447032421e-05
-4.750318932140733   7.016431817673396e-05   7.016431817673396e-05   7.016431817673396e-05   7.016431817673396e-05   7.016431817673396e-05   7.016431817673396e-05
-4.739466911764788   6.869834188314369e-05   6.869834188314369e-05   6.869834188314369e-05   6.869834188314369e-05   6.869834188314369e-05   6.869834188314369e-05
-4.72873139457124   6.723236558955343e-05   6.723236558955343e-05   6.723236558955343e-05   6.723236558955343e-05   6.723236558955343e-05   6.723236558955343e-05
-4.718109905638275   6.576638929596318e-05   6.576638929596318e-05   6.576638929596318e-05   6.576638929596318e-05   6.576638929596318e-05   6.576638929596318e-05
-4.707600048079503   6.430041300237292e-05   6.430041300237292e-05   6.430041300237292e-05   6.430041300237292e-05   6.430041300237292e-05   6.430041300237292e-05
-4.6971994997974065   6.283443670878266e-05   6.283443670878266e-05   6.283443670878266e-05   6.283443670878266e-05   6.283443670878266e-05   6.283443670878266e-05
-4.686906010403858   6.13684604151924e-05   6.13684604151924e-05   6.13684604151924e-05   6.13684604151924e-05   6.13684604151924e-05   6.13684604151924e-05
-4.676717398297551   5.990248412160214e-05   5.990248412160214e-05   5.990248412160214e-05   5.990248412160214e-05   5.990248412160214e-05   5.990248412160214e-05
-4.666631547888807   5.843650782801188e-05   5.843650782801188e-05   5.843650782801188e-05   5.843650782801188e-05   5.843650782801188e-05   5.843650782801188e-05
-4.65664640696294   5.6970531534421605e-05   5.6970531534421605e-05   5.6970531534421605e-05   5.6970531534421605e-05   5.6970531534421605e-05   5.6970531534421605e-05
-4.646759984173969   5.550455524083138e-05   5.550455524083138e-05   5.550455524083138e-05   5.550455524083138e-05   5.550455524083138e-05   5.550455524083138e-05
-4.636970346661007   5.40385789472411e-05   5.40385789472411e-05   5.40385789472411e-05   5.40385789472411e-05   5.40385789472411e-05   5.40385789472411e-05
-4.627275617780203   5.257260265365085e-05   5.257260265365085e-05   5.257260265365085e-05   5.257260265365085e-05   5.257260265365085e-05   5.257260265365085e-05
-4.617673974945567   5.1106626360060595e-05   5.1106626360060595e-05   5.1106626360060595e-05   5.1106626360060595e-05   5.1106626360060595e-05   5.1106626360060595e-05
-4.608163647572474   5.1156806419099814e-05   5.1156806419099814e-05   5.1156806419099814e-05   5.1156806419099814e-05   5.1156806419099814e-05   5.1156806419099814e-05
-4.598742915118048   5.129843137274874e-05   5.129843137274874e-05   5.129843137274874e-05   5.129843137274874e-05   5.129843137274874e-05   5.129843137274874e-05
-4.589410105212975   5.144005632639767e-05   5.144005632639767e-05   5.144005632639767e-05   5.144005632639767e-05   5.144005632639767e-05   5.144005632639767e-05
-4.580163591879711   5.15816812800466e-05   5.15816812800466e-05   5.15816812800466e-05   5.15816812800466e-05   5.15816812800466e-05   5.15816812800466e-05
-4.571001793832298   5.1723306233695526e-05   5.1723306233695526e-05   5.1723306233695526e-05   5.1723306233695526e-05   5.1723306233695526e-05   5.1723306233695526e-05
-4.561923172853374   5.186493118734446e-05   5.186493118734446e-05   5.186493118734446e-05   5.186493118734446e-05   5.186493118734446e-05   5.186493118734446e-05
-4.552926232244176   5.200655614099339e-05   5.200655614099339e-05   5.200655614099339e-05   5.200655614099339e-05   5.200655614099339e-05   5.200655614099339e-05
-4.544009515343676   5.2148181094642316e-05   5.2148181094642316e-05   5.2148181094642316e-05   5.2148181094642316e-05   5.2148181094642316e-05   5.2148181094642316e-05
-4.535171604113134   5.228980604829125e-05   5.228980604829125e-05   5.228980604829125e-05   5.228980604829125e-05   5.228980604829125e-05   5.228980604829125e-05
-4.526411117782662   5.243143100194017e-05   5.243143100194017e-05   5.243143100194017e-05   5.243143100194017e-05   5.243143100194017e-05   5.243143100194017e-05
-4.517726711556566   5.2573055955589107e-05   5.2573055955589107e-05   5.2573055955589107e-05   5.2573055955589107e-05   5.2573055955589107e-05   5.2573055955589107e-05
-4.50911707537441   5.2714680909238034e-05   5.2714680909238034e-05   5.2714680909238034e-05   5.2714680909238034e-05   5.2714680909238034e-05   5.2714680909238034e-05
-4.500580932724969   5.285630586288696e-05   5.285630586288696e-05   5.285630586288696e-05   5.285630586288696e-05   5.285630586288696e-05   5.285630586288696e-05
-4.4921170395103704   5.29979308165359e-05   5.29979308165359e-05   5.29979308165359e-05   5.29979308165359e-05   5.29979308165359e-05   5.29979308165359e-05
-4.4837241829579115   5.313955577018482e-05   5.313955577018482e-05   5.313955577018482e-05   5.313955577018482e-05   5.313955577018482e-05   5.313955577018482e-05
-4.47540118057715   5.328118072383375e-05   5.328118072383375e-05   5.328118072383375e-05   5.328118072383375e-05   5.328118072383375e-05   5.328118072383375e-05
-4.46714687916005   5.342280567748268e-05   5.342280567748268e-05   5.342280567748268e-05   5.342280567748268e-05   5.342280567748268e-05   5.342280567748268e-05
-4.458960153822049   5.356443063113161e-05   5.356443063113161e-05   5.356443063113161e-05   5.356443063113161e-05   5.356443063113161e-05   5.356443063113161e-05
-4.450839907082065   5.370605558478054e-05   5.370605558478054e-05   5.370605558478054e-05   5.370605558478054e-05   5.370605558478054e-05   5.370605558478054e-05
-4.442785067979554   5.384768053842947e-05   5.384768053842947e-05   5.384768053842947e-05   5.384768053842947e-05   5.384768053842947e-05   5.384768053842947e-05
-4.434794591226845   5.39893054920784e-05   5.39893054920784e-05   5.39893054920784e-05   5.39893054920784e-05   5.39893054920784e-05   5.39893054920784e-05
-4.426867456395073   5.413093044572733e-05   5.413093044572733e-05   5.413093044572733e-05   5.413093044572733e-05   5.413093044572733e-05   5.413093044572733e-05
-4.419002667132123   5.4272555399376255e-05   5.4272555399376255e-05   5.4272555399376255e-05   5.4272555399376255e-05   5.4272555399376255e-05   5.4272555399376255e-05
-4.411199250411094   5.441418035302519e-05   5.441418035302519e-05   5.441418035302519e-05   5.441418035302519e-05   5.441418035302519e-05   5.441418035302519e-05
-4.403456255807857   5.455580530667412e-05   5.455580530667412e-05   5.455580530667412e-05   5.455580530667412e-05   5.455580530667412e-05   5.455580530667412e-05
-4.395772754806363   5.4697430260323045e-05   5.4697430260323045e-05   5.4697430260323045e-05   5.4697430260323045e-05   5.4697430260323045e-05   5.4697430260323045e-05
-4.388147840130446   5.483905521397197e-05   5.483905521397197e-05   5.483905521397197e-05   5.483905521397197e-05   5.483905521397197e-05   5.483905521397197e-05
-4.380580625100898   5.498068016762091e-05   5.498068016762091e-05   5.498068016762091e-05   5.498068016762091e-05   5.498068016762091e-05   5.498068016762091e-05
-4.373070243016699   5.5122305121269835e-05   5.5122305121269835e-05   5.5122305121269835e-05   5.5122305121269835e-05   5.5122305121269835e-05   5.5122305121269835e-05
-4.3656158465593   5.526393007491876e-05   5.526393007491876e-05   5.526393007491876e-05   5.526393007491876e-05   5.526393007491876e-05   5.526393007491876e-05
-4.35821660721895   5.540555502856769e-05   5.540555502856769e-05   5.540555502856769e-05   5.540555502856769e-05   5.540555502856769e-05   5.540555502856769e-05
-4.350871714742096   5.554717998221662e-05   5.554717998221662e-05   5.554717998221662e-05   5.554717998221662e-05   5.554717998221662e-05   5.554717998221662e-05
-4.343580376598919   5.568880493586555e-05   5.568880493586555e-05   5.568880493586555e-05   5.568880493586555e-05   5.568880493586555e-05   5.568880493586555e-05
-4.336341817470154   5.5830429889514475e-05   5.5830429889514475e-05   5.5830429889514475e-05   5.5830429889514475e-05   5.5830429889514475e-05   5.5830429889514475e-05
-4.329155278752337   5.597205484316341e-05   5.597205484316341e-05   5.597205484316341e-05   5.597205484316341e-05   5.597205484316341e-05   5.597205484316341e-05
-4.322020018080718   5.611367979681234e-05   5.611367979681234e-05   5.611367979681234e-05   5.611367979681234e-05   5.611367979681234e-05   5.611367979681234e-05
-4.314935308869058   5.6255304750461265e-05   5.6255304750461265e-05   5.6255304750461265e-05   5.6255304750461265e-05   5.6255304750461265e-05   5.6255304750461265e-05
-4.307900439865632   5.63969297041102e-05   5.63969297041102e-05   5.63969297041102e-05   5.63969297041102e-05   5.63969297041102e-05   5.63969297041102e-05
-4.300914714724725   5.653855465775913e-05   5.653855465775913e-05   5.653855465775913e-05   5.653855465775913e-05   5.653855465775913e-05   5.653855465775913e-05
-4.293977451592999   5.6680179611408055e-05   5.6680179611408055e-05   5.6680179611408055e-05   5.6680179611408055e-05   5.6680179611408055e-05   5.6680179611408055e-05
-4.2870879827101085   5.682180456505698e-05   5.682180456505698e-05   5.682180456505698e-05   5.682180456505698e-05   5.682180456505698e-05   5.682180456505698e-05
-4.280245654022976   5.723451408968773e-05   5.723451408968773e-05   5.723451408968773e-05   5.723451408968773e-05   5.723451408968773e-05   5.723451408968773e-05
-4.273449824813181   5.7821806134158986e-05   5.7821806134158986e-05   5.7821806134158986e-05   5.7821806134158986e-05   5.7821806134158986e-05   5.7821806134158986e-05
-4.266699867336918   5.840909817863022e-05   5.840909817863022e-05   5.840909817863022e-05   5.840909817863022e-05   5.840909817863022e-05   5.840909817863022e-05
-4.2599951664770295   5.8996390223101474e-05   5.8996390223101474e-05   5.8996390223101474e-05   5.8996390223101474e-05   5.8996390223101474e-05   5.8996390223101474e-05
-4.253335119406623   5.958368226757271e-05   5.958368226757271e-05   5.958368226757271e-05   5.958368226757271e-05   5.958368226757271e-05   5.958368226757271e-05
-4.246719135263819   6.017097431204397e-05   6.017097431204397e-05   6.017097431204397e-05   6.017097431204397e-05   6.017097431204397e-05   6.017097431204397e-05
-4.240146634837186   6.075826635651522e-05   6.075826635651522e-05   6.075826635651522e-05   6.075826635651522e-05   6.075826635651522e-05   6.075826635651522e-05
-4.233617050261441   6.134555840098645e-05   6.134555840098645e-05   6.134555840098645e-05   6.134555840098645e-05   6.134555840098645e-05   6.134555840098645e-05
-4.2271298247230344   6.193285044545771e-05   6.193285044545771e-05   6.193285044545771e-05   6.193285044545771e-05   6.193285044545771e-05   6.193285044545771e-05
-4.220684412175207   6.252014248992897e-05   6.252014248992897e-05   6.252014248992897e-05   6.252014248992897e-05   6.252014248992897e-05   6.252014248992897e-05
-4.214280277062181   6.31074345344002e-05   6.31074345344002e-05   6.31074345344002e-05   6.31074345344002e-05   6.31074345344002e-05   6.31074345344002e-05
-4.207916894052119   6.369472657887145e-05   6.369472657887145e-05   6.369472657887145e-05   6.369472657887145e-05   6.369472657887145e-05   6.369472657887145e-05
-4.201593747778541   6.428201862334269e-05   6.428201862334269e-05   6.428201862334269e-05   6.428201862334269e-05   6.428201862334269e-05   6.428201862334269e-05
-4.195310332589845   6.582278853415031e-05   6.582278853415031e-05   6.582278853415031e-05   6.582278853415031e-05   6.582278853415031e-05   6.582278853415031e-05
-4.189066152306662   6.810322612308566e-05   6.810322612308566e-05   6.810322612308566e-05   6.810322612308566e-05   6.810322612308566e-05   6.810322612308566e-05
-4.182860719986736   7.038366371202092e-05   7.038366371202092e-05   7.038366371202092e-05   7.038366371202092e-05   7.038366371202092e-05   7.038366371202092e-05
-4.176693557697053   7.266410130095628e-05   7.266410130095628e-05   7.266410130095628e-05   7.266410130095628e-05   7.266410130095628e-05   7.266410130095628e-05
-4.170564196292957   7.494453888989162e-05   7.494453888989162e-05   7.494453888989162e-05   7.494453888989162e-05   7.494453888989162e-05   7.494453888989162e-05
-4.164472175203986   7.722497647882689e-05   7.722497647882689e-05   7.722497647882689e-05   7.722497647882689e-05   7.722497647882689e-05   7.722497647882689e-05
-4.158417042226208   7.950541406776223e-05   7.950541406776223e-05   7.950541406776223e-05   7.950541406776223e-05   7.950541406776223e-05   7.950541406776223e-05
-4.152398353320784   8.178585165669751e-05   8.178585165669751e-05   8.178585165669751e-05   8.178585165669751e-05   8.178585165669751e-05   8.178585165669751e-05
-4.146415672418578   8.406628924563285e-05   8.406628924563285e-05   8.406628924563285e-05   8.406628924563285e-05   8.406628924563285e-05   8.406628924563285e-05
-4.140468571230565   8.63467268345682e-05   8.63467268345682e-05   8.63467268345682e-05   8.63467268345682e-05   8.63467268345682e-05   8.63467268345682e-05
-4.134556629063849   8.862716442350346e-05   8.862716442350346e-05   8.862716442350346e-05   8.862716442350346e-05   8.862716442350346e-05   8.862716442350346e-05
-4.12867943264308   9.090760201243882e-05   9.090760201243882e-05   9.090760201243882e-05   9.090760201243882e-05   9.090760201243882e-05   9.090760201243882e-05
-4.1228365759370975   9.318803960137408e-05   9.318803960137408e-05   9.318803960137408e-05   9.318803960137408e-05   9.318803960137408e-05   9.318803960137408e-05
-4.117027659990605   9.546847719030943e-05   9.546847719030943e-05   9.546847719030943e-05   9.546847719030943e-05   9.546847719030943e-05   9.546847719030943e-05
-4.111252292760703   9.774891477924477e-05   9.774891477924477e-05   9.774891477924477e-05   9.774891477924477e-05   9.774891477924477e-05   9.774891477924477e-05
-4.1055100889581215   0.00010002935236818003   0.00010002935236818003   0.00010002935236818003   0.00010002935236818003   0.00010002935236818003   0.00010002935236818003
-4.099800669892976   0.0001023097899571154   0.0001023097899571154   0.0001023097899571154   0.0001023097899571154   0.0001023097899571154   0.0001023097899571154
-4.094123663324909   0.00010459022754605074   0.00010459022754605074   0.00010459022754605074   0.00010459022754605074   0.00010459022754605074   0.00010459022754605074
-4.088478703317464   0.000106870665134986   0.000106870665134986   0.000106870665134986   0.000106870665134986   0.000106870665134986   0.000106870665134986
-4.082865430096532   0.00010915110272392135   0.00010915110272392135   0.00010915110272392135   0.00010915110272392135   0.00010915110272392135   0.00010915110272392135
-4.077283489912767   0.00011143154031285661   0.00011143154031285661   0.00011143154031285661   0.00011143154031285661   0.00011143154031285661   0.00011143154031285661
-4.071732534907809   0.00011372666135342712   0.00011372666135342712   0.00011372666135342712   0.00011372666135342712   0.00011372666135342712   0.00011372666135342712
