# Neutrino-Ar40 nc cross section (10^-38 cm^2/GeV, natural abundance) # 
# log(energy in GeV)  nu_e      nu_mu      nu_tau      nu_e_bar      nu_mu_bar    nu_tau_bar # 

-4.964364732104951   0.0   0.0   0.0   0.0   0.0   0.0
-4.95115228823253   -1.6543701732697034e-07   -1.6543701732697034e-07   -1.6543701732697034e-07   -1.6543701732697034e-07   -1.6543701732697034e-07   -1.6543701732697034e-07
-4.938112139072703   -3.3087403465393915e-07   -3.3087403465393915e-07   -3.3087403465393915e-07   -3.3087403465393915e-07   -3.3087403465393915e-07   -3.3087403465393915e-07
-4.925239848845467   -4.963110519809096e-07   -4.963110519809096e-07   -4.963110519809096e-07   -4.963110519809096e-07   -4.963110519809096e-07   -4.963110519809096e-07
-4.9125311508967915   -6.617480693078799e-07   -6.617480693078799e-07   -6.617480693078799e-07   -6.617480693078799e-07   -6.617480693078799e-07   -6.617480693078799e-07
-4.8999819392085655   -8.271850866348502e-07   -8.271850866348502e-07   -8.271850866348502e-07   -8.271850866348502e-07   -8.271850866348502e-07   -8.271850866348502e-07
-4.887588260434701   -9.92622103961819e-07   -9.92622103961819e-07   -9.92622103961819e-07   -9.92622103961819e-07   -9.92622103961819e-07   -9.92622103961819e-07
-4.8753463064247295   -1.1580591212887893e-06   -1.1580591212887893e-06   -1.1580591212887893e-06   -1.1580591212887893e-06   -1.1580591212887893e-06   -1.1580591212887893e-06
-4.863252407199522   -1.3234961386157598e-06   -1.3234961386157598e-06   -1.3234961386157598e-06   -1.3234961386157598e-06   -1.3234961386157598e-06   -1.3234961386157598e-06
-4.851303024346722   -1.48893315594273e-06   -1.48893315594273e-06   -1.48893315594273e-06   -1.48893315594273e-06   -1.48893315594273e-06   -1.48893315594273e-06
-4.8394947448061325   -1.6543701732697005e-06   -1.6543701732697005e-06   -1.6543701732697005e-06   -1.6543701732697005e-06   -1.6543701732697005e-06   -1.6543701732697005e-06
-4.827824275017772   -1.8198071905966678e-06   -1.8198071905966678e-06   -1.8198071905966678e-06   -1.8198071905966678e-06   -1.8198071905966678e-06   -1.8198071905966678e-06
-4.81628843540748   -1.985244207923638e-06   -1.985244207923638e-06   -1.985244207923638e-06   -1.985244207923638e-06   -1.985244207923638e-06   -1.985244207923638e-06
-4.804884155186981   -1.738584202776183e-06   -1.738584202776183e-06   -1.738584202776183e-06   -1.738584202776183e-06   -1.738584202776183e-06   -1.738584202776183e-06
-4.7936084674471235   -4.490664264688192e-07   -4.490664264688192e-07   -4.490664264688192e-07   -4.490664264688192e-07   -4.490664264688192e-07   -4.490664264688192e-07
-4.782458504524696   8.404513498385447e-07   8.404513498385447e-07   8.404513498385447e-07   8.404513498385447e-07   8.404513498385447e-07   8.404513498385447e-07
-4.7714314936246955   2.1299691261459086e-06   2.1299691261459086e-06   2.1299691261459086e-06   2.1299691261459086e-06   2.1299691261459086e-06   2.1299691261459086e-06
-4.760524752681346   3.4194869024532716e-06   3.4194869024532716e-06   3.4194869024532716e-06   3.4194869024532716e-06   3.4194869024532716e-06   3.4194869024532716e-06
-4.749735686442412   4.709004678760636e-06   4.709004678760636e-06   4.709004678760636e-06   4.709004678760636e-06   4.709004678760636e-06   4.709004678760636e-06
-4.739061782762493   5.998522455067999e-06   5.998522455067999e-06   5.998522455067999e-06   5.998522455067999e-06   5.998522455067999e-06   5.998522455067999e-06
-4.728500609092067   7.28804023137534e-06   7.28804023137534e-06   7.28804023137534e-06   7.28804023137534e-06   7.28804023137534e-06   7.28804023137534e-06
-4.718049809150006   8.577558007682703e-06   8.577558007682703e-06   8.577558007682703e-06   8.577558007682703e-06   8.577558007682703e-06   8.577558007682703e-06
-4.707707099768171   9.867075783990066e-06   9.867075783990066e-06   9.867075783990066e-06   9.867075783990066e-06   9.867075783990066e-06   9.867075783990066e-06
-4.697470267897521   1.1156593560297431e-05   1.1156593560297431e-05   1.1156593560297431e-05   1.1156593560297431e-05   1.1156593560297431e-05   1.1156593560297431e-05
-4.687337167765924   1.2446111336604794e-05   1.2446111336604794e-05   1.2446111336604794e-05   1.2446111336604794e-05   1.2446111336604794e-05   1.2446111336604794e-05
-4.67730571817852   1.3735629112912159e-05   1.3735629112912159e-05   1.3735629112912159e-05   1.3735629112912159e-05   1.3735629112912159e-05   1.3735629112912159e-05
-4.667373899952153   1.4748594720053667e-05   1.4748594720053667e-05   1.4748594720053667e-05   1.4748594720053667e-05   1.4748594720053667e-05   1.4748594720053667e-05
-4.657539753475971   1.5549913258955974e-05   1.5549913258955974e-05   1.5549913258955974e-05   1.5549913258955974e-05   1.5549913258955974e-05   1.5549913258955974e-05
-4.647801376390789   1.6351231797858295e-05   1.6351231797858295e-05   1.6351231797858295e-05   1.6351231797858295e-05   1.6351231797858295e-05   1.6351231797858295e-05
-4.638156921380384   1.7152550336760614e-05   1.7152550336760614e-05   1.7152550336760614e-05   1.7152550336760614e-05   1.7152550336760614e-05   1.7152550336760614e-05
-4.6286045940682685   1.7953868875662935e-05   1.7953868875662935e-05   1.7953868875662935e-05   1.7953868875662935e-05   1.7953868875662935e-05   1.7953868875662935e-05
-4.619142651013985   1.8755187414565257e-05   1.8755187414565257e-05   1.8755187414565257e-05   1.8755187414565257e-05   1.8755187414565257e-05   1.8755187414565257e-05
-4.609769397803297   1.955650595346758e-05   1.955650595346758e-05   1.955650595346758e-05   1.955650595346758e-05   1.955650595346758e-05   1.955650595346758e-05
-4.600483187227068   2.03578244923699e-05   2.03578244923699e-05   2.03578244923699e-05   2.03578244923699e-05   2.03578244923699e-05   2.03578244923699e-05
-4.59128241754392   2.1159143031272205e-05   2.1159143031272205e-05   2.1159143031272205e-05   2.1159143031272205e-05   2.1159143031272205e-05   2.1159143031272205e-05
-4.582165530822082   2.1960461570174524e-05   2.1960461570174524e-05   2.1960461570174524e-05   2.1960461570174524e-05   2.1960461570174524e-05   2.1960461570174524e-05
-4.57313101135616   2.2761780109076845e-05   2.2761780109076845e-05   2.2761780109076845e-05   2.2761780109076845e-05   2.2761780109076845e-05   2.2761780109076845e-05
-4.564177384154768   2.3563098647979167e-05   2.3563098647979167e-05   2.3563098647979167e-05   2.3563098647979167e-05   2.3563098647979167e-05   2.3563098647979167e-05
-4.55530321349529   2.436441718688149e-05   2.436441718688149e-05   2.436441718688149e-05   2.436441718688149e-05   2.436441718688149e-05   2.436441718688149e-05
-4.546507101542183   2.432984664111235e-05   2.432984664111235e-05   2.432984664111235e-05   2.432984664111235e-05   2.432984664111235e-05   2.432984664111235e-05
-4.537787687025531   2.4147431767442133e-05   2.4147431767442133e-05   2.4147431767442133e-05   2.4147431767442133e-05   2.4147431767442133e-05   2.4147431767442133e-05
-4.529143643976723   2.396501689377192e-05   2.396501689377192e-05   2.396501689377192e-05   2.396501689377192e-05   2.396501689377192e-05   2.396501689377192e-05
-4.520573680518287   2.3782602020101698e-05   2.3782602020101698e-05   2.3782602020101698e-05   2.3782602020101698e-05   2.3782602020101698e-05   2.3782602020101698e-05
-4.51207653770516   2.3600187146431484e-05   2.3600187146431484e-05   2.3600187146431484e-05   2.3600187146431484e-05   2.3600187146431484e-05   2.3600187146431484e-05
-4.503650988414765   2.3417772272761266e-05   2.3417772272761266e-05   2.3417772272761266e-05   2.3417772272761266e-05   2.3417772272761266e-05   2.3417772272761266e-05
-4.495295836283456   2.323535739909105e-05   2.323535739909105e-05   2.323535739909105e-05   2.323535739909105e-05   2.323535739909105e-05   2.323535739909105e-05
-4.487009914687036   2.305294252542083e-05   2.305294252542083e-05   2.305294252542083e-05   2.305294252542083e-05   2.305294252542083e-05   2.305294252542083e-05
-4.4787920857631525   2.2870527651750614e-05   2.2870527651750614e-05   2.2870527651750614e-05   2.2870527651750614e-05   2.2870527651750614e-05   2.2870527651750614e-05
-4.470641239473548   2.26881127780804e-05   2.26881127780804e-05   2.26881127780804e-05   2.26881127780804e-05   2.26881127780804e-05   2.26881127780804e-05
-4.462556292704213   2.250569790441018e-05   2.250569790441018e-05   2.250569790441018e-05   2.250569790441018e-05   2.250569790441018e-05   2.250569790441018e-05
-4.454536188401624   2.2323283030739964e-05   2.2323283030739964e-05   2.2323283030739964e-05   2.2323283030739964e-05   2.2323283030739964e-05   2.2323283030739964e-05
-4.44657989474335   2.233015010285196e-05   2.233015010285196e-05   2.233015010285196e-05   2.233015010285196e-05   2.233015010285196e-05   2.233015010285196e-05
-4.438686404341388   2.357146464745677e-05   2.357146464745677e-05   2.357146464745677e-05   2.357146464745677e-05   2.357146464745677e-05   2.357146464745677e-05
-4.430854733476696   2.4812779192061583e-05   2.4812779192061583e-05   2.4812779192061583e-05   2.4812779192061583e-05   2.4812779192061583e-05   2.4812779192061583e-05
-4.423083921363473   2.6054093736666397e-05   2.6054093736666397e-05   2.6054093736666397e-05   2.6054093736666397e-05   2.6054093736666397e-05   2.6054093736666397e-05
-4.415373029441798   2.7295408281271186e-05   2.7295408281271186e-05   2.7295408281271186e-05   2.7295408281271186e-05   2.7295408281271186e-05   2.7295408281271186e-05
-4.407721140697341   2.853672282587602e-05   2.853672282587602e-05   2.853672282587602e-05   2.853672282587602e-05   2.853672282587602e-05   2.853672282587602e-05
-4.400127359006896   2.977803737048081e-05   2.977803737048081e-05   2.977803737048081e-05   2.977803737048081e-05   2.977803737048081e-05   2.977803737048081e-05
-4.392590808508583   3.1019351915085644e-05   3.1019351915085644e-05   3.1019351915085644e-05   3.1019351915085644e-05   3.1019351915085644e-05   3.1019351915085644e-05
-4.385110632995603   3.226066645969043e-05   3.226066645969043e-05   3.226066645969043e-05   3.226066645969043e-05   3.226066645969043e-05   3.226066645969043e-05
-4.377685995332498   3.350198100429525e-05   3.350198100429525e-05   3.350198100429525e-05   3.350198100429525e-05   3.350198100429525e-05   3.350198100429525e-05
-4.370316076892928   3.474329554890006e-05   3.474329554890006e-05   3.474329554890006e-05   3.474329554890006e-05   3.474329554890006e-05   3.474329554890006e-05
-4.363000077018007   3.598461009350487e-05   3.598461009350487e-05   3.598461009350487e-05   3.598461009350487e-05   3.598461009350487e-05   3.598461009350487e-05
-4.355737212494311   3.722592463810969e-05   3.722592463810969e-05   3.722592463810969e-05   3.722592463810969e-05   3.722592463810969e-05   3.722592463810969e-05
-4.348526717050713   3.8235550188502554e-05   3.8235550188502554e-05   3.8235550188502554e-05   3.8235550188502554e-05   3.8235550188502554e-05   3.8235550188502554e-05
-4.341367840873217   3.892016756645924e-05   3.892016756645924e-05   3.892016756645924e-05   3.892016756645924e-05   3.892016756645924e-05   3.892016756645924e-05
-4.334259850137049   3.960478494441589e-05   3.960478494441589e-05   3.960478494441589e-05   3.960478494441589e-05   3.960478494441589e-05   3.960478494441589e-05
-4.327202026555245   4.028940232237256e-05   4.028940232237256e-05   4.028940232237256e-05   4.028940232237256e-05   4.028940232237256e-05   4.028940232237256e-05
-4.32019366694307   4.097401970032923e-05   4.097401970032923e-05   4.097401970032923e-05   4.097401970032923e-05   4.097401970032923e-05   4.097401970032923e-05
-4.313234082797591   4.16586370782859e-05   4.16586370782859e-05   4.16586370782859e-05   4.16586370782859e-05   4.16586370782859e-05   4.16586370782859e-05
-4.306322599891774   4.2343254456242566e-05   4.2343254456242566e-05   4.2343254456242566e-05   4.2343254456242566e-05   4.2343254456242566e-05   4.2343254456242566e-05
-4.299458557882521   4.302787183419922e-05   4.302787183419922e-05   4.302787183419922e-05   4.302787183419922e-05   4.302787183419922e-05   4.302787183419922e-05
-4.29264130993206   4.3712489212155904e-05   4.3712489212155904e-05   4.3712489212155904e-05   4.3712489212155904e-05   4.3712489212155904e-05   4.3712489212155904e-05
-4.285870222342158   4.439710659011256e-05   4.439710659011256e-05   4.439710659011256e-05   4.439710659011256e-05   4.439710659011256e-05   4.439710659011256e-05
-4.279144674200631   4.508172396806923e-05   4.508172396806923e-05   4.508172396806923e-05   4.508172396806923e-05   4.508172396806923e-05   4.508172396806923e-05
-4.272464057039667   4.5766341346025896e-05   4.5766341346025896e-05   4.5766341346025896e-05   4.5766341346025896e-05   4.5766341346025896e-05   4.5766341346025896e-05
-4.265827774505481   4.693566269236213e-05   4.693566269236213e-05   4.693566269236213e-05   4.693566269236213e-05   4.693566269236213e-05   4.693566269236213e-05
-4.259235242038865   4.936723395635353e-05   4.936723395635353e-05   4.936723395635353e-05   4.936723395635353e-05   4.936723395635353e-05   4.936723395635353e-05
-4.252685886566191   5.179880522034488e-05   5.179880522034488e-05   5.179880522034488e-05   5.179880522034488e-05   5.179880522034488e-05   5.179880522034488e-05
-4.246179146200476   5.4230376484336315e-05   5.4230376484336315e-05   5.4230376484336315e-05   5.4230376484336315e-05   5.4230376484336315e-05   5.4230376484336315e-05
-4.239714469952108   5.6661947748327665e-05   5.6661947748327665e-05   5.6661947748327665e-05   5.6661947748327665e-05   5.6661947748327665e-05   5.6661947748327665e-05
-4.23329131744885   5.909351901231906e-05   5.909351901231906e-05   5.909351901231906e-05   5.909351901231906e-05   5.909351901231906e-05   5.909351901231906e-05
-4.226909158664802   6.152509027631045e-05   6.152509027631045e-05   6.152509027631045e-05   6.152509027631045e-05   6.152509027631045e-05   6.152509027631045e-05
-4.220567473657936   6.395666154030185e-05   6.395666154030185e-05   6.395666154030185e-05   6.395666154030185e-05   6.395666154030185e-05   6.395666154030185e-05
-4.214265752315913   6.638823280429325e-05   6.638823280429325e-05   6.638823280429325e-05   6.638823280429325e-05   6.638823280429325e-05   6.638823280429325e-05
-4.208003494109853   6.881980406828464e-05   6.881980406828464e-05   6.881980406828464e-05   6.881980406828464e-05   6.881980406828464e-05   6.881980406828464e-05
-4.201780207855775   7.125137533227604e-05   7.125137533227604e-05   7.125137533227604e-05   7.125137533227604e-05   7.125137533227604e-05   7.125137533227604e-05
-4.195595411483399   7.368294659626738e-05   7.368294659626738e-05   7.368294659626738e-05   7.368294659626738e-05   7.368294659626738e-05   7.368294659626738e-05
-4.189448631812076   7.611451786025878e-05   7.611451786025878e-05   7.611451786025878e-05   7.611451786025878e-05   7.611451786025878e-05   7.611451786025878e-05
-4.183339404333538   7.854608912425018e-05   7.854608912425018e-05   7.854608912425018e-05   7.854608912425018e-05   7.854608912425018e-05   7.854608912425018e-05
-4.177267273001266   8.097766038824158e-05   8.097766038824158e-05   8.097766038824158e-05   8.097766038824158e-05   8.097766038824158e-05   8.097766038824158e-05
-4.171231790026195   8.340923165223296e-05   8.340923165223296e-05   8.340923165223296e-05   8.340923165223296e-05   8.340923165223296e-05   8.340923165223296e-05
-4.165232515678569   8.584080291622437e-05   8.584080291622437e-05   8.584080291622437e-05   8.584080291622437e-05   8.584080291622437e-05   8.584080291622437e-05
-4.159269018095677   8.756699602171005e-05   8.756699602171005e-05   8.756699602171005e-05   8.756699602171005e-05   8.756699602171005e-05   8.756699602171005e-05
-4.153340873095315   8.862743895512289e-05   8.862743895512289e-05   8.862743895512289e-05   8.862743895512289e-05   8.862743895512289e-05   8.862743895512289e-05
-4.147447663994729   8.968788188853569e-05   8.968788188853569e-05   8.968788188853569e-05   8.968788188853569e-05   8.968788188853569e-05   8.968788188853569e-05
-4.141588981434863   9.074832482194849e-05   9.074832482194849e-05   9.074832482194849e-05   9.074832482194849e-05   9.074832482194849e-05   9.074832482194849e-05
-4.135764423209727   9.18087677553613e-05   9.18087677553613e-05   9.18087677553613e-05   9.18087677553613e-05   9.18087677553613e-05   9.18087677553613e-05
-4.129973594100712   9.286921068877415e-05   9.286921068877415e-05   9.286921068877415e-05   9.286921068877415e-05   9.286921068877415e-05   9.286921068877415e-05
-4.124216105715665   9.392965362218699e-05   9.392965362218699e-05   9.392965362218699e-05   9.392965362218699e-05   9.392965362218699e-05   9.392965362218699e-05
-4.118491576332576   9.499009655559979e-05   9.499009655559979e-05   9.499009655559979e-05   9.499009655559979e-05   9.499009655559979e-05   9.499009655559979e-05
-4.11279963074771   9.60505394890126e-05   9.60505394890126e-05   9.60505394890126e-05   9.60505394890126e-05   9.60505394890126e-05   9.60505394890126e-05
-4.107139900128039   9.71109824224254e-05   9.71109824224254e-05   9.71109824224254e-05   9.71109824224254e-05   9.71109824224254e-05   9.71109824224254e-05
-4.101512021867828   9.817142535583824e-05   9.817142535583824e-05   9.817142535583824e-05   9.817142535583824e-05   9.817142535583824e-05   9.817142535583824e-05
-4.095915639449232   9.923186828925109e-05   9.923186828925109e-05   9.923186828925109e-05   9.923186828925109e-05   9.923186828925109e-05   9.923186828925109e-05
-4.09035040230677   0.00010072855256261412   0.00010072855256261412   0.00010072855256261412   0.00010072855256261412   0.00010072855256261412   0.00010072855256261412
-4.084815965695556   0.00010346610109183583   0.00010346610109183583   0.00010346610109183583   0.00010346610109183583   0.00010346610109183583   0.00010346610109183583
-4.079311990563147   0.00010620364962105764   0.00010620364962105764   0.00010620364962105764   0.00010620364962105764   0.00010620364962105764   0.00010620364962105764
-4.073838143424906   0.00010894119815027945   0.00010894119815027945   0.00010894119815027945   0.00010894119815027945   0.00010894119815027945   0.00010894119815027945
-4.0683940962427565   0.00011167874667950117   0.00011167874667950117   0.00011167874667950117   0.00011167874667950117   0.00011167874667950117   0.00011167874667950117
-4.062979526307216   0.00011441629520872289   0.00011441629520872289   0.00011441629520872289   0.00011441629520872289   0.00011441629520872289   0.00011441629520872289
-4.057594116122608   0.00011715384373794459   0.00011715384373794459   0.00011715384373794459   0.00011715384373794459   0.00011715384373794459   0.00011715384373794459
-4.0522375532953525   0.0001198913922671664   0.0001198913922671664   0.0001198913922671664   0.0001198913922671664   0.0001198913922671664   0.0001198913922671664
-4.046909530425223   0.00012262894079638823   0.00012262894079638823   0.00012262894079638823   0.00012262894079638823   0.00012262894079638823   0.00012262894079638823
-4.041609744999494   0.00012536648932560994   0.00012536648932560994   0.00012536648932560994   0.00012536648932560994   0.00012536648932560994   0.00012536648932560994
-4.036337899289877   0.00012810403785483166   0.00012810403785483166   0.00012810403785483166   0.00012810403785483166   0.00012810403785483166   0.00012810403785483166
-4.031093700252151   0.00013084158638405346   0.00013084158638405346   0.00013084158638405346   0.00013084158638405346   0.00013084158638405346   0.00013084158638405346
-4.025876859428425   0.00013357913491327518   0.00013357913491327518   0.00013357913491327518   0.00013357913491327518   0.00013357913491327518   0.00013357913491327518
-4.020687092851925   0.0001362448161420354   0.0001362448161420354   0.0001362448161420354   0.0001362448161420354   0.0001362448161420354   0.0001362448161420354
-4.015524120954245   0.00013809429017269667   0.00013809429017269667   0.00013809429017269667   0.00013809429017269667   0.00013809429017269667   0.00013809429017269667
