# Neutrino-Ar40 nc cross section (10^-38 cm^2/GeV, natural abundance) # 
# log(energy in GeV)  nu_e      nu_mu      nu_tau      nu_e_bar      nu_mu_bar    nu_tau_bar # 

-4.964364732104951   -1.0857620440772671e-07   -1.0857620440772671e-07   -1.0857620440772671e-07   -1.0857620440772671e-07   -1.0857620440772671e-07   -1.0857620440772671e-07
-4.95115228823253   -1.7419958807603058e-07   -1.7419958807603058e-07   -1.7419958807603058e-07   -1.7419958807603058e-07   -1.7419958807603058e-07   -1.7419958807603058e-07
-4.938112139072703   -2.398229717443338e-07   -2.398229717443338e-07   -2.398229717443338e-07   -2.398229717443338e-07   -2.398229717443338e-07   -2.398229717443338e-07
-4.925239848845467   -3.054463554126377e-07   -3.054463554126377e-07   -3.054463554126377e-07   -3.054463554126377e-07   -3.054463554126377e-07   -3.054463554126377e-07
-4.9125311508967915   -3.710697390809415e-07   -3.710697390809415e-07   -3.710697390809415e-07   -3.710697390809415e-07   -3.710697390809415e-07   -3.710697390809415e-07
-4.8999819392085655   -4.366931227492454e-07   -4.366931227492454e-07   -4.366931227492454e-07   -4.366931227492454e-07   -4.366931227492454e-07   -4.366931227492454e-07
-4.887588260434701   -5.023165064175487e-07   -5.023165064175487e-07   -5.023165064175487e-07   -5.023165064175487e-07   -5.023165064175487e-07   -5.023165064175487e-07
-4.8753463064247295   -5.679398900858526e-07   -5.679398900858526e-07   -5.679398900858526e-07   -5.679398900858526e-07   -5.679398900858526e-07   -5.679398900858526e-07
-4.863252407199522   -6.335632737541563e-07   -6.335632737541563e-07   -6.335632737541563e-07   -6.335632737541563e-07   -6.335632737541563e-07   -6.335632737541563e-07
-4.851303024346722   -6.991866574224602e-07   -6.991866574224602e-07   -6.991866574224602e-07   -6.991866574224602e-07   -6.991866574224602e-07   -6.991866574224602e-07
-4.8394947448061325   -7.648100410907641e-07   -7.648100410907641e-07   -7.648100410907641e-07   -7.648100410907641e-07   -7.648100410907641e-07   -7.648100410907641e-07
-4.827824275017772   -8.304334247590668e-07   -8.304334247590668e-07   -8.304334247590668e-07   -8.304334247590668e-07   -8.304334247590668e-07   -8.304334247590668e-07
-4.81628843540748   -8.960568084273706e-07   -8.960568084273706e-07   -8.960568084273706e-07   -8.960568084273706e-07   -8.960568084273706e-07   -8.960568084273706e-07
-4.804884155186981   -7.793653322789785e-07   -7.793653322789785e-07   -7.793653322789785e-07   -7.793653322789785e-07   -7.793653322789785e-07   -7.793653322789785e-07
-4.7936084674471235   -2.013056394515395e-07   -2.013056394515395e-07   -2.013056394515395e-07   -2.013056394515395e-07   -2.013056394515395e-07   -2.013056394515395e-07
-4.782458504524696   3.7675405337589927e-07   3.7675405337589927e-07   3.7675405337589927e-07   3.7675405337589927e-07   3.7675405337589927e-07   3.7675405337589927e-07
-4.7714314936246955   9.548137462033384e-07   9.548137462033384e-07   9.548137462033384e-07   9.548137462033384e-07   9.548137462033384e-07   9.548137462033384e-07
-4.760524752681346   1.532873439030777e-06   1.532873439030777e-06   1.532873439030777e-06   1.532873439030777e-06   1.532873439030777e-06   1.532873439030777e-06
-4.749735686442412   2.110933131858216e-06   2.110933131858216e-06   2.110933131858216e-06   2.110933131858216e-06   2.110933131858216e-06   2.110933131858216e-06
-4.739061782762493   2.6889928246856548e-06   2.6889928246856548e-06   2.6889928246856548e-06   2.6889928246856548e-06   2.6889928246856548e-06   2.6889928246856548e-06
-4.728500609092067   3.267052517513083e-06   3.267052517513083e-06   3.267052517513083e-06   3.267052517513083e-06   3.267052517513083e-06   3.267052517513083e-06
-4.718049809150006   3.8451122103405215e-06   3.8451122103405215e-06   3.8451122103405215e-06   3.8451122103405215e-06   3.8451122103405215e-06   3.8451122103405215e-06
-4.707707099768171   4.423171903167961e-06   4.423171903167961e-06   4.423171903167961e-06   4.423171903167961e-06   4.423171903167961e-06   4.423171903167961e-06
-4.697470267897521   5.001231595995399e-06   5.001231595995399e-06   5.001231595995399e-06   5.001231595995399e-06   5.001231595995399e-06   5.001231595995399e-06
-4.687337167765924   5.579291288822839e-06   5.579291288822839e-06   5.579291288822839e-06   5.579291288822839e-06   5.579291288822839e-06   5.579291288822839e-06
-4.67730571817852   6.157350981650277e-06   6.157350981650277e-06   6.157350981650277e-06   6.157350981650277e-06   6.157350981650277e-06   6.157350981650277e-06
-4.667373899952153   6.61143901243785e-06   6.61143901243785e-06   6.61143901243785e-06   6.61143901243785e-06   6.61143901243785e-06   6.61143901243785e-06
-4.657539753475971   6.970650771256126e-06   6.970650771256126e-06   6.970650771256126e-06   6.970650771256126e-06   6.970650771256126e-06   6.970650771256126e-06
-4.647801376390789   7.329862530074408e-06   7.329862530074408e-06   7.329862530074408e-06   7.329862530074408e-06   7.329862530074408e-06   7.329862530074408e-06
-4.638156921380384   7.689074288892689e-06   7.689074288892689e-06   7.689074288892689e-06   7.689074288892689e-06   7.689074288892689e-06   7.689074288892689e-06
-4.6286045940682685   8.048286047710971e-06   8.048286047710971e-06   8.048286047710971e-06   8.048286047710971e-06   8.048286047710971e-06   8.048286047710971e-06
-4.619142651013985   8.407497806529254e-06   8.407497806529254e-06   8.407497806529254e-06   8.407497806529254e-06   8.407497806529254e-06   8.407497806529254e-06
-4.609769397803297   8.766709565347536e-06   8.766709565347536e-06   8.766709565347536e-06   8.766709565347536e-06   8.766709565347536e-06   8.766709565347536e-06
-4.600483187227068   9.125921324165817e-06   9.125921324165817e-06   9.125921324165817e-06   9.125921324165817e-06   9.125921324165817e-06   9.125921324165817e-06
-4.59128241754392   9.485133082984093e-06   9.485133082984093e-06   9.485133082984093e-06   9.485133082984093e-06   9.485133082984093e-06   9.485133082984093e-06
-4.582165530822082   9.844344841802373e-06   9.844344841802373e-06   9.844344841802373e-06   9.844344841802373e-06   9.844344841802373e-06   9.844344841802373e-06
-4.57313101135616   1.0203556600620656e-05   1.0203556600620656e-05   1.0203556600620656e-05   1.0203556600620656e-05   1.0203556600620656e-05   1.0203556600620656e-05
-4.564177384154768   1.0562768359438938e-05   1.0562768359438938e-05   1.0562768359438938e-05   1.0562768359438938e-05   1.0562768359438938e-05   1.0562768359438938e-05
-4.55530321349529   1.092198011825722e-05   1.092198011825722e-05   1.092198011825722e-05   1.092198011825722e-05   1.092198011825722e-05   1.092198011825722e-05
-4.546507101542183   1.0906482977050366e-05   1.0906482977050366e-05   1.0906482977050366e-05   1.0906482977050366e-05   1.0906482977050366e-05   1.0906482977050366e-05
-4.537787687025531   1.0824710792301646e-05   1.0824710792301646e-05   1.0824710792301646e-05   1.0824710792301646e-05   1.0824710792301646e-05   1.0824710792301646e-05
-4.529143643976723   1.074293860755293e-05   1.074293860755293e-05   1.074293860755293e-05   1.074293860755293e-05   1.074293860755293e-05   1.074293860755293e-05
-4.520573680518287   1.066116642280421e-05   1.066116642280421e-05   1.066116642280421e-05   1.066116642280421e-05   1.066116642280421e-05   1.066116642280421e-05
-4.51207653770516   1.0579394238055494e-05   1.0579394238055494e-05   1.0579394238055494e-05   1.0579394238055494e-05   1.0579394238055494e-05   1.0579394238055494e-05
-4.503650988414765   1.0497622053306775e-05   1.0497622053306775e-05   1.0497622053306775e-05   1.0497622053306775e-05   1.0497622053306775e-05   1.0497622053306775e-05
-4.495295836283456   1.0415849868558057e-05   1.0415849868558057e-05   1.0415849868558057e-05   1.0415849868558057e-05   1.0415849868558057e-05   1.0415849868558057e-05
-4.487009914687036   1.0334077683809338e-05   1.0334077683809338e-05   1.0334077683809338e-05   1.0334077683809338e-05   1.0334077683809338e-05   1.0334077683809338e-05
-4.4787920857631525   1.025230549906062e-05   1.025230549906062e-05   1.025230549906062e-05   1.025230549906062e-05   1.025230549906062e-05   1.025230549906062e-05
-4.470641239473548   1.0170533314311903e-05   1.0170533314311903e-05   1.0170533314311903e-05   1.0170533314311903e-05   1.0170533314311903e-05   1.0170533314311903e-05
-4.462556292704213   1.0088761129563184e-05   1.0088761129563184e-05   1.0088761129563184e-05   1.0088761129563184e-05   1.0088761129563184e-05   1.0088761129563184e-05
-4.454536188401624   1.0006988944814466e-05   1.0006988944814466e-05   1.0006988944814466e-05   1.0006988944814466e-05   1.0006988944814466e-05   1.0006988944814466e-05
-4.44657989474335   1.001006728748536e-05   1.001006728748536e-05   1.001006728748536e-05   1.001006728748536e-05   1.001006728748536e-05   1.001006728748536e-05
-4.438686404341388   1.0566518635066827e-05   1.0566518635066827e-05   1.0566518635066827e-05   1.0566518635066827e-05   1.0566518635066827e-05   1.0566518635066827e-05
-4.430854733476696   1.1122969982648296e-05   1.1122969982648296e-05   1.1122969982648296e-05   1.1122969982648296e-05   1.1122969982648296e-05   1.1122969982648296e-05
-4.423083921363473   1.1679421330229763e-05   1.1679421330229763e-05   1.1679421330229763e-05   1.1679421330229763e-05   1.1679421330229763e-05   1.1679421330229763e-05
-4.415373029441798   1.223587267781122e-05   1.223587267781122e-05   1.223587267781122e-05   1.223587267781122e-05   1.223587267781122e-05   1.223587267781122e-05
-4.407721140697341   1.27923240253927e-05   1.27923240253927e-05   1.27923240253927e-05   1.27923240253927e-05   1.27923240253927e-05   1.27923240253927e-05
-4.400127359006896   1.3348775372974157e-05   1.3348775372974157e-05   1.3348775372974157e-05   1.3348775372974157e-05   1.3348775372974157e-05   1.3348775372974157e-05
-4.392590808508583   1.3905226720555636e-05   1.3905226720555636e-05   1.3905226720555636e-05   1.3905226720555636e-05   1.3905226720555636e-05   1.3905226720555636e-05
-4.385110632995603   1.4461678068137093e-05   1.4461678068137093e-05   1.4461678068137093e-05   1.4461678068137093e-05   1.4461678068137093e-05   1.4461678068137093e-05
-4.377685995332498   1.501812941571856e-05   1.501812941571856e-05   1.501812941571856e-05   1.501812941571856e-05   1.501812941571856e-05   1.501812941571856e-05
-4.370316076892928   1.5574580763300027e-05   1.5574580763300027e-05   1.5574580763300027e-05   1.5574580763300027e-05   1.5574580763300027e-05   1.5574580763300027e-05
-4.363000077018007   1.6131032110881495e-05   1.6131032110881495e-05   1.6131032110881495e-05   1.6131032110881495e-05   1.6131032110881495e-05   1.6131032110881495e-05
-4.355737212494311   1.6687483458462965e-05   1.6687483458462965e-05   1.6687483458462965e-05   1.6687483458462965e-05   1.6687483458462965e-05   1.6687483458462965e-05
-4.348526717050713   1.714007422243218e-05   1.714007422243218e-05   1.714007422243218e-05   1.714007422243218e-05   1.714007422243218e-05   1.714007422243218e-05
-4.341367840873217   1.7446971667723108e-05   1.7446971667723108e-05   1.7446971667723108e-05   1.7446971667723108e-05   1.7446971667723108e-05   1.7446971667723108e-05
-4.334259850137049   1.775386911301402e-05   1.775386911301402e-05   1.775386911301402e-05   1.775386911301402e-05   1.775386911301402e-05   1.775386911301402e-05
-4.327202026555245   1.8060766558304944e-05   1.8060766558304944e-05   1.8060766558304944e-05   1.8060766558304944e-05   1.8060766558304944e-05   1.8060766558304944e-05
-4.32019366694307   1.8367664003595863e-05   1.8367664003595863e-05   1.8367664003595863e-05   1.8367664003595863e-05   1.8367664003595863e-05   1.8367664003595863e-05
-4.313234082797591   1.8674561448886783e-05   1.8674561448886783e-05   1.8674561448886783e-05   1.8674561448886783e-05   1.8674561448886783e-05   1.8674561448886783e-05
-4.306322599891774   1.8981458894177706e-05   1.8981458894177706e-05   1.8981458894177706e-05   1.8981458894177706e-05   1.8981458894177706e-05   1.8981458894177706e-05
-4.299458557882521   1.928835633946862e-05   1.928835633946862e-05   1.928835633946862e-05   1.928835633946862e-05   1.928835633946862e-05   1.928835633946862e-05
-4.29264130993206   1.9595253784759546e-05   1.9595253784759546e-05   1.9595253784759546e-05   1.9595253784759546e-05   1.9595253784759546e-05   1.9595253784759546e-05
-4.285870222342158   1.9902151230050462e-05   1.9902151230050462e-05   1.9902151230050462e-05   1.9902151230050462e-05   1.9902151230050462e-05   1.9902151230050462e-05
-4.279144674200631   2.0209048675341382e-05   2.0209048675341382e-05   2.0209048675341382e-05   2.0209048675341382e-05   2.0209048675341382e-05   2.0209048675341382e-05
-4.272464057039667   2.0515946120632305e-05   2.0515946120632305e-05   2.0515946120632305e-05   2.0515946120632305e-05   2.0515946120632305e-05   2.0515946120632305e-05
-4.265827774505481   2.104012465519682e-05   2.104012465519682e-05   2.104012465519682e-05   2.104012465519682e-05   2.104012465519682e-05   2.104012465519682e-05
-4.259235242038865   2.2130139359744688e-05   2.2130139359744688e-05   2.2130139359744688e-05   2.2130139359744688e-05   2.2130139359744688e-05   2.2130139359744688e-05
-4.252685886566191   2.3220154064292534e-05   2.3220154064292534e-05   2.3220154064292534e-05   2.3220154064292534e-05   2.3220154064292534e-05   2.3220154064292534e-05
-4.246179146200476   2.4310168768840424e-05   2.4310168768840424e-05   2.4310168768840424e-05   2.4310168768840424e-05   2.4310168768840424e-05   2.4310168768840424e-05
-4.239714469952108   2.540018347338827e-05   2.540018347338827e-05   2.540018347338827e-05   2.540018347338827e-05   2.540018347338827e-05   2.540018347338827e-05
-4.23329131744885   2.6490198177936137e-05   2.6490198177936137e-05   2.6490198177936137e-05   2.6490198177936137e-05   2.6490198177936137e-05   2.6490198177936137e-05
-4.226909158664802   2.7580212882484004e-05   2.7580212882484004e-05   2.7580212882484004e-05   2.7580212882484004e-05   2.7580212882484004e-05   2.7580212882484004e-05
-4.220567473657936   2.867022758703187e-05   2.867022758703187e-05   2.867022758703187e-05   2.867022758703187e-05   2.867022758703187e-05   2.867022758703187e-05
-4.214265752315913   2.9760242291579737e-05   2.9760242291579737e-05   2.9760242291579737e-05   2.9760242291579737e-05   2.9760242291579737e-05   2.9760242291579737e-05
-4.208003494109853   3.08502569961276e-05   3.08502569961276e-05   3.08502569961276e-05   3.08502569961276e-05   3.08502569961276e-05   3.08502569961276e-05
-4.201780207855775   3.194027170067547e-05   3.194027170067547e-05   3.194027170067547e-05   3.194027170067547e-05   3.194027170067547e-05   3.194027170067547e-05
-4.195595411483399   3.3030286405223316e-05   3.3030286405223316e-05   3.3030286405223316e-05   3.3030286405223316e-05   3.3030286405223316e-05   3.3030286405223316e-05
-4.189448631812076   3.412030110977118e-05   3.412030110977118e-05   3.412030110977118e-05   3.412030110977118e-05   3.412030110977118e-05   3.412030110977118e-05
-4.183339404333538   3.5210315814319056e-05   3.5210315814319056e-05   3.5210315814319056e-05   3.5210315814319056e-05   3.5210315814319056e-05   3.5210315814319056e-05
-4.177267273001266   3.6300330518866916e-05   3.6300330518866916e-05   3.6300330518866916e-05   3.6300330518866916e-05   3.6300330518866916e-05   3.6300330518866916e-05
-4.171231790026195   3.739034522341479e-05   3.739034522341479e-05   3.739034522341479e-05   3.739034522341479e-05   3.739034522341479e-05   3.739034522341479e-05
-4.165232515678569   3.848035992796265e-05   3.848035992796265e-05   3.848035992796265e-05   3.848035992796265e-05   3.848035992796265e-05   3.848035992796265e-05
-4.159269018095677   3.925417063042175e-05   3.925417063042175e-05   3.925417063042175e-05   3.925417063042175e-05   3.925417063042175e-05   3.925417063042175e-05
-4.153340873095315   3.972954160057234e-05   3.972954160057234e-05   3.972954160057234e-05   3.972954160057234e-05   3.972954160057234e-05   3.972954160057234e-05
-4.147447663994729   4.0204912570722904e-05   4.0204912570722904e-05   4.0204912570722904e-05   4.0204912570722904e-05   4.0204912570722904e-05   4.0204912570722904e-05
-4.141588981434863   4.068028354087347e-05   4.068028354087347e-05   4.068028354087347e-05   4.068028354087347e-05   4.068028354087347e-05   4.068028354087347e-05
-4.135764423209727   4.115565451102404e-05   4.115565451102404e-05   4.115565451102404e-05   4.115565451102404e-05   4.115565451102404e-05   4.115565451102404e-05
-4.129973594100712   4.163102548117462e-05   4.163102548117462e-05   4.163102548117462e-05   4.163102548117462e-05   4.163102548117462e-05   4.163102548117462e-05
-4.124216105715665   4.2106396451325205e-05   4.2106396451325205e-05   4.2106396451325205e-05   4.2106396451325205e-05   4.2106396451325205e-05   4.2106396451325205e-05
-4.118491576332576   4.258176742147578e-05   4.258176742147578e-05   4.258176742147578e-05   4.258176742147578e-05   4.258176742147578e-05   4.258176742147578e-05
-4.11279963074771   4.305713839162634e-05   4.305713839162634e-05   4.305713839162634e-05   4.305713839162634e-05   4.305713839162634e-05   4.305713839162634e-05
-4.107139900128039   4.353250936177691e-05   4.353250936177691e-05   4.353250936177691e-05   4.353250936177691e-05   4.353250936177691e-05   4.353250936177691e-05
-4.101512021867828   4.4007880331927493e-05   4.4007880331927493e-05   4.4007880331927493e-05   4.4007880331927493e-05   4.4007880331927493e-05   4.4007880331927493e-05
-4.095915639449232   4.448325130207808e-05   4.448325130207808e-05   4.448325130207808e-05   4.448325130207808e-05   4.448325130207808e-05   4.448325130207808e-05
-4.09035040230677   4.5154178734964954e-05   4.5154178734964954e-05   4.5154178734964954e-05   4.5154178734964954e-05   4.5154178734964954e-05   4.5154178734964954e-05
-4.084815965695556   4.638135566185744e-05   4.638135566185744e-05   4.638135566185744e-05   4.638135566185744e-05   4.638135566185744e-05   4.638135566185744e-05
-4.079311990563147   4.760853258874998e-05   4.760853258874998e-05   4.760853258874998e-05   4.760853258874998e-05   4.760853258874998e-05   4.760853258874998e-05
-4.073838143424906   4.8835709515642517e-05   4.8835709515642517e-05   4.8835709515642517e-05   4.8835709515642517e-05   4.8835709515642517e-05   4.8835709515642517e-05
-4.0683940962427565   5.006288644253501e-05   5.006288644253501e-05   5.006288644253501e-05   5.006288644253501e-05   5.006288644253501e-05   5.006288644253501e-05
-4.062979526307216   5.12900633694275e-05   5.12900633694275e-05   5.12900633694275e-05   5.12900633694275e-05   5.12900633694275e-05   5.12900633694275e-05
-4.057594116122608   5.251724029631999e-05   5.251724029631999e-05   5.251724029631999e-05   5.251724029631999e-05   5.251724029631999e-05   5.251724029631999e-05
-4.0522375532953525   5.374441722321253e-05   5.374441722321253e-05   5.374441722321253e-05   5.374441722321253e-05   5.374441722321253e-05   5.374441722321253e-05
-4.046909530425223   5.4971594150105064e-05   5.4971594150105064e-05   5.4971594150105064e-05   5.4971594150105064e-05   5.4971594150105064e-05   5.4971594150105064e-05
-4.041609744999494   5.619877107699756e-05   5.619877107699756e-05   5.619877107699756e-05   5.619877107699756e-05   5.619877107699756e-05   5.619877107699756e-05
-4.036337899289877   5.742594800389005e-05   5.742594800389005e-05   5.742594800389005e-05   5.742594800389005e-05   5.742594800389005e-05   5.742594800389005e-05
-4.031093700252151   5.8653124930782586e-05   5.8653124930782586e-05   5.8653124930782586e-05   5.8653124930782586e-05   5.8653124930782586e-05   5.8653124930782586e-05
-4.025876859428425   5.9880301857675075e-05   5.9880301857675075e-05   5.9880301857675075e-05   5.9880301857675075e-05   5.9880301857675075e-05   5.9880301857675075e-05
-4.020687092851925   6.107526240849864e-05   6.107526240849864e-05   6.107526240849864e-05   6.107526240849864e-05   6.107526240849864e-05   6.107526240849864e-05
