# Neutrino-Ar40 nc cross section (10^-38 cm^2/GeV, natural abundance) # 
# log(energy in GeV)  nu_e      nu_mu      nu_tau      nu_e_bar      nu_mu_bar    nu_tau_bar # 

-4.964364732104951   -58.464110065698996   -58.464110065698996   -58.464110065698996   -58.464110065698996   -58.464110065698996   -58.464110065698996
-4.951139149637477   -93.83514923395389   -93.83514923395389   -93.83514923395389   -93.83514923395389   -93.83514923395389   -93.83514923395389
-4.938086202482567   -129.20618840220877   -129.20618840220877   -129.20618840220877   -129.20618840220877   -129.20618840220877   -129.20618840220877
-4.925201441785313   -164.57722757046366   -164.57722757046366   -164.57722757046366   -164.57722757046366   -164.57722757046366   -164.57722757046366
-4.912480588477547   -199.94826673871856   -199.94826673871856   -199.94826673871856   -199.94826673871856   -199.94826673871856   -199.94826673871856
-4.899919524746574   -235.31930590697343   -235.31930590697343   -235.31930590697343   -235.31930590697343   -235.31930590697343   -235.31930590697343
-4.887514286033089   -270.6903450752283   -270.6903450752283   -270.6903450752283   -270.6903450752283   -270.6903450752283   -270.6903450752283
-4.8752610535194   -306.06138424348285   -306.06138424348285   -306.06138424348285   -306.06138424348285   -306.06138424348285   -306.06138424348285
-4.863156147072312   -341.4324234117378   -341.4324234117378   -341.4324234117378   -341.4324234117378   -341.4324234117378   -341.4324234117378
-4.851196018608068   -376.80346257999264   -376.80346257999264   -376.80346257999264   -376.80346257999264   -376.80346257999264   -376.80346257999264
-4.839377245849394   -412.17450174824785   -412.17450174824785   -412.17450174824785   -412.17450174824785   -412.17450174824785   -412.17450174824785
-4.827696526447192   -447.54554091650243   -447.54554091650243   -447.54554091650243   -447.54554091650243   -447.54554091650243   -447.54554091650243
-4.816150672441585   -482.91658008475696   -482.91658008475696   -482.91658008475696   -482.91658008475696   -482.91658008475696   -482.91658008475696
-4.804736605039099   -415.607787524415   -415.607787524415   -415.607787524415   -415.607787524415   -415.607787524415   -415.607787524415
-4.793451349684572   -104.03330151593713   -104.03330151593713   -104.03330151593713   -104.03330151593713   -104.03330151593713   -104.03330151593713
-4.782292031408036   207.5411844925349   207.5411844925349   207.5411844925349   207.5411844925349   207.5411844925349   207.5411844925349
-4.771255870428379   519.1156705010071   519.1156705010071   519.1156705010071   519.1156705010071   519.1156705010071   519.1156705010071
-4.7603401779969685   830.690156509485   830.690156509485   830.690156509485   830.690156509485   830.690156509485   830.690156509485
-4.749542352465685   1142.264642517957   1142.264642517957   1142.264642517957   1142.264642517957   1142.264642517957   1142.264642517957
-4.738859875564976   1453.839128526435   1453.839128526435   1453.839128526435   1453.839128526435   1453.839128526435   1453.839128526435
-4.728290308878621   1765.413614534907   1765.413614534907   1765.413614534907   1765.413614534907   1765.413614534907   1765.413614534907
-4.7178312905028585   2076.988100543385   2076.988100543385   2076.988100543385   2076.988100543385   2076.988100543385   2076.988100543385
-4.707480531878419   2388.562586551857   2388.562586551857   2388.562586551857   2388.562586551857   2388.562586551857   2388.562586551857
-4.697235814784845   2700.137072560329   2700.137072560329   2700.137072560329   2700.137072560329   2700.137072560329   2700.137072560329
-4.687094988487214   3011.711558568807   3011.711558568807   3011.711558568807   3011.711558568807   3011.711558568807   3011.711558568807
-4.677055967026092   3323.286044577285   3323.286044577285   3323.286044577285   3323.286044577285   3323.286044577285   3323.286044577285
-4.66711672664217   3565.0396207039953   3565.0396207039953   3565.0396207039953   3565.0396207039953   3565.0396207039953   3565.0396207039953
-4.657275303327628   3758.654952322379   3758.654952322379   3758.654952322379   3758.654952322379   3758.654952322379   3758.654952322379
-4.647529790496829   3952.2702839407657   3952.2702839407657   3952.2702839407657   3952.2702839407657   3952.2702839407657   3952.2702839407657
-4.637878336769418   4145.885615559149   4145.885615559149   4145.885615559149   4145.885615559149   4145.885615559149   4145.885615559149
-4.628319143859379   4339.500947177536   4339.500947177536   4339.500947177536   4339.500947177536   4339.500947177536   4339.500947177536
-4.618850464564045   4533.116278795919   4533.116278795919   4533.116278795919   4533.116278795919   4533.116278795919   4533.116278795919
-4.609470600847421   4726.7316104143065   4726.7316104143065   4726.7316104143065   4726.7316104143065   4726.7316104143065   4726.7316104143065
-4.600177902012563   4920.34694203269   4920.34694203269   4920.34694203269   4920.34694203269   4920.34694203269   4920.34694203269
-4.590970762958102   5113.962273651077   5113.962273651077   5113.962273651077   5113.962273651077   5113.962273651077   5113.962273651077
-4.581847622514293   5307.57760526946   5307.57760526946   5307.57760526946   5307.57760526946   5307.57760526946   5307.57760526946
-4.572806961854295   5501.192936887847   5501.192936887847   5501.192936887847   5501.192936887847   5501.192936887847   5501.192936887847
-4.5638473029766065   5694.808268506231   5694.808268506231   5694.808268506231   5694.808268506231   5694.808268506231   5694.808268506231
-4.554967207254905   5888.423600124614   5888.423600124614   5888.423600124614   5888.423600124614   5888.423600124614   5888.423600124614
-4.546165274051694   5871.002668212581   5871.002668212581   5871.002668212581   5871.002668212581   5871.002668212581   5871.002668212581
-4.537440139392438   5826.92741655777   5826.92741655777   5826.92741655777   5826.92741655777   5826.92741655777   5826.92741655777
-4.528790474697046   5782.85216490296   5782.85216490296   5782.85216490296   5782.85216490296   5782.85216490296   5782.85216490296
-4.520214985565736   5738.77691324815   5738.77691324815   5738.77691324815   5738.77691324815   5738.77691324815   5738.77691324815
-4.511712410616526   5694.701661593339   5694.701661593339   5694.701661593339   5694.701661593339   5694.701661593339   5694.701661593339
-4.503281520371731   5650.626409938527   5650.626409938527   5650.626409938527   5650.626409938527   5650.626409938527   5650.626409938527
-4.494921116191006   5606.551158283718   5606.551158283718   5606.551158283718   5606.551158283718   5606.551158283718   5606.551158283718
-4.48663002924862   5562.475906628907   5562.475906628907   5562.475906628907   5562.475906628907   5562.475906628907   5562.475906628907
-4.478407119552783   5518.400654974096   5518.400654974096   5518.400654974096   5518.400654974096   5518.400654974096   5518.400654974096
-4.470251275004963   5474.325403319286   5474.325403319286   5474.325403319286   5474.325403319286   5474.325403319286   5474.325403319286
-4.462161410497259   5430.250151664475   5430.250151664475   5430.250151664475   5430.250151664475   5430.250151664475   5430.250151664475
-4.454136467045983   5386.174900009664   5386.174900009664   5386.174900009664   5386.174900009664   5386.174900009664   5386.174900009664
-4.446175410959741   5405.332538112863   5405.332538112863   5405.332538112863   5405.332538112863   5405.332538112863   5405.332538112863
-4.438277233040365   5705.260114386848   5705.260114386848   5705.260114386848   5705.260114386848   5705.260114386848   5705.260114386848
-4.430440947815146   6005.187690660831   6005.187690660831   6005.187690660831   6005.187690660831   6005.187690660831   6005.187690660831
-4.422665592798934   6305.115266934821   6305.115266934821   6305.115266934821   6305.115266934821   6305.115266934821   6305.115266934821
-4.414950227784685   6605.04284320881   6605.04284320881   6605.04284320881   6605.04284320881   6605.04284320881   6605.04284320881
-4.4072939341611805   6904.970419482795   6904.970419482795   6904.970419482795   6904.970419482795   6904.970419482795   6904.970419482795
-4.399695814256665   7204.897995756779   7204.897995756779   7204.897995756779   7204.897995756779   7204.897995756779   7204.897995756779
-4.392154990707228   7504.825572030768   7504.825572030768   7504.825572030768   7504.825572030768   7504.825572030768   7504.825572030768
-4.384670605848825   7804.753148304752   7804.753148304752   7804.753148304752   7804.753148304752   7804.753148304752   7804.753148304752
-4.3772418211318875   8104.680724578737   8104.680724578737   8104.680724578737   8104.680724578737   8104.680724578737   8104.680724578737
-4.3698678165575044   8404.608300852726   8404.608300852726   8404.608300852726   8404.608300852726   8404.608300852726   8404.608300852726
-4.362547790134252   8704.535877126715   8704.535877126715   8704.535877126715   8704.535877126715   8704.535877126715   8704.535877126715
-4.355280957354756   9004.463453400698   9004.463453400698   9004.463453400698   9004.463453400698   9004.463453400698   9004.463453400698
-4.348066550691127   9239.85748001529   9239.85748001529   9239.85748001529   9239.85748001529   9239.85748001529   9239.85748001529
-4.340903819108481   9405.275368444984   9405.275368444984   9405.275368444984   9405.275368444984   9405.275368444984   9405.275368444984
-4.333792027595753   9570.69325687468   9570.69325687468   9570.69325687468   9570.69325687468   9570.69325687468   9570.69325687468
-4.3267304567130696   9736.111145304372   9736.111145304372   9736.111145304372   9736.111145304372   9736.111145304372   9736.111145304372
-4.319718402155002   9901.529033734067   9901.529033734067   9901.529033734067   9901.529033734067   9901.529033734067   9901.529033734067
-4.312755174329019   10066.946922163761   10066.946922163761   10066.946922163761   10066.946922163761   10066.946922163761   10066.946922163761
-4.30584009794852   10232.364810593457   10232.364810593457   10232.364810593457   10232.364810593457   10232.364810593457   10232.364810593457
-4.298972511639837   10397.782699023148   10397.782699023148   10397.782699023148   10397.782699023148   10397.782699023148   10397.782699023148
-4.292151767562642   10563.200587452844   10563.200587452844   10563.200587452844   10563.200587452844   10563.200587452844   10563.200587452844
-4.285377231043214   10728.618475882538   10728.618475882538   10728.618475882538   10728.618475882538   10728.618475882538   10728.618475882538
-4.278648280220047   10894.036364312233   10894.036364312233   10894.036364312233   10894.036364312233   10894.036364312233   10894.036364312233
-4.27196430570129   11059.454252741925   11059.454252741925   11059.454252741925   11059.454252741925   11059.454252741925   11059.454252741925
-4.265324710233577   11373.94929826833   11373.94929826833   11373.94929826833   11373.94929826833   11373.94929826833   11373.94929826833
-4.258728908381769   11961.467811538147   11961.467811538147   11961.467811538147   11961.467811538147   11961.467811538147   11961.467811538147
-4.2521763262191845   12548.986324807955   12548.986324807955   12548.986324807955   12548.986324807955   12548.986324807955   12548.986324807955
-4.245666401027921   13136.50483807776   13136.50483807776   13136.50483807776   13136.50483807776   13136.50483807776   13136.50483807776
-4.239198581008869   13724.02335134758   13724.02335134758   13724.02335134758   13724.02335134758   13724.02335134758   13724.02335134758
-4.232772325001035   14311.541864617397   14311.541864617397   14311.541864617397   14311.541864617397   14311.541864617397   14311.541864617397
-4.226387102209833   14899.060377887205   14899.060377887205   14899.060377887205   14899.060377887205   14899.060377887205   14899.060377887205
-4.220042391943997   15486.578891157013   15486.578891157013   15486.578891157013   15486.578891157013   15486.578891157013   15486.578891157013
-4.213737683360774   16074.09740442683   16074.09740442683   16074.09740442683   16074.09740442683   16074.09740442683   16074.09740442683
-4.207472475219122   16661.615917696636   16661.615917696636   16661.615917696636   16661.615917696636   16661.615917696636   16661.615917696636
-4.201246275640565   17249.134430966456   17249.134430966456   17249.134430966456   17249.134430966456   17249.134430966456   17249.134430966456
-4.195058601877471   17836.652944236263   17836.652944236263   17836.652944236263   17836.652944236263   17836.652944236263   17836.652944236263
-4.188908980088435   18424.17145750608   18424.17145750608   18424.17145750608   18424.17145750608   18424.17145750608   18424.17145750608
-4.182796945120543   19011.689970775886   19011.689970775886   19011.689970775886   19011.689970775886   19011.689970775886   19011.689970775886
-4.176722040298239   19599.208484045696   19599.208484045696   19599.208484045696   19599.208484045696   19599.208484045696   19599.208484045696
-4.170683817218569   20186.726997315513   20186.726997315513   20186.726997315513   20186.726997315513   20186.726997315513   20186.726997315513
-4.16468183555257   20774.24551058532   20774.24551058532   20774.24551058532   20774.24551058532   20774.24551058532   20774.24551058532
-4.15871566285259   21160.69005313831   21160.69005313831   21160.69005313831   21160.69005313831   21160.69005313831   21160.69005313831
-4.152784874365308   21416.91526227468   21416.91526227468   21416.91526227468   21416.91526227468   21416.91526227468   21416.91526227468
-4.14688905285028   21673.14047141105   21673.14047141105   21673.14047141105   21673.14047141105   21673.14047141105   21673.14047141105
-4.141027788403798   21929.365680547413   21929.365680547413   21929.365680547413   21929.365680547413   21929.365680547413   21929.365680547413
-4.135200678287871   22185.590889683794   22185.590889683794   22185.590889683794   22185.590889683794   22185.590889683794   22185.590889683794
-4.129407326764185   22441.816098820156   22441.816098820156   22441.816098820156   22441.816098820156   22441.816098820156   22441.816098820156
-4.123647344932811   22698.041307956526   22698.041307956526   22698.041307956526   22698.041307956526   22698.041307956526   22698.041307956526
-4.117920350575565   22954.2665170929   22954.2665170929   22954.2665170929   22954.2665170929   22954.2665170929   22954.2665170929
-4.112225968003802   23210.491726229262   23210.491726229262   23210.491726229262   23210.491726229262   23210.491726229262   23210.491726229262
-4.106563827910535   23466.71693536563   23466.71693536563   23466.71693536563   23466.71693536563   23466.71693536563   23466.71693536563
-4.100933567226714   23722.942144502005   23722.942144502005   23722.942144502005   23722.942144502005   23722.942144502005   23722.942144502005
-4.095334828981518   23979.167353638364   23979.167353638364   23979.167353638364   23979.167353638364   23979.167353638364   23979.167353638364
-4.0897672621665535   24383.240697226134   24383.240697226134   24383.240697226134   24383.240697226134   24383.240697226134   24383.240697226134
-4.084230521603796   25044.68972227023   25044.68972227023   25044.68972227023   25044.68972227023   25044.68972227023   25044.68972227023
-4.078724267817182   25706.1387473143   25706.1387473143   25706.1387473143   25706.1387473143   25706.1387473143   25706.1387473143
-4.073248166907702   26367.58777235842   26367.58777235842   26367.58777235842   26367.58777235842   26367.58777235842   26367.58777235842
-4.06780189043191   27029.036797402492   27029.036797402492   27029.036797402492   27029.036797402492   27029.036797402492   27029.036797402492
-4.062385115283709   27690.485822446586   27690.485822446586   27690.485822446586   27690.485822446586   27690.485822446586   27690.485822446586
-4.056997523579333   28351.934847490684   28351.934847490684   28351.934847490684   28351.934847490684   28351.934847490684   28351.934847490684
-4.051638802545405   29013.383872534752   29013.383872534752   29013.383872534752   29013.383872534752   29013.383872534752   29013.383872534752
-4.046308644409978   29674.83289757885   29674.83289757885   29674.83289757885   29674.83289757885   29674.83289757885   29674.83289757885
-4.041006746296465   30336.281922622944   30336.281922622944   30336.281922622944   30336.281922622944   30336.281922622944   30336.281922622944
-4.035732810120371   30997.730947667016   30997.730947667016   30997.730947667016   30997.730947667016   30997.730947667016   30997.730947667016
-4.030486542488725   31659.17997271111   31659.17997271111   31659.17997271111   31659.17997271111   31659.17997271111   31659.17997271111
-4.025267654602142   32320.628997755208   32320.628997755208   32320.628997755208   32320.628997755208   32320.628997755208   32320.628997755208
-4.020075862159428   32939.41061166613   32939.41061166613   32939.41061166613   32939.41061166613   32939.41061166613   32939.41061166613
-4.014910885264645   33386.28224932549   33386.28224932549   33386.28224932549   33386.28224932549   33386.28224932549   33386.28224932549
-4.009772448336569   33833.15388698483   33833.15388698483   33833.15388698483   33833.15388698483   33833.15388698483   33833.15388698483
-4.004660280020453   34280.02552464418   34280.02552464418   34280.02552464418   34280.02552464418   34280.02552464418   34280.02552464418
-3.999574113102048   34726.89716230353   34726.89716230353   34726.89716230353   34726.89716230353   34726.89716230353   34726.89716230353
-3.9945136844237843   35173.76879996287   35173.76879996287   35173.76879996287   35173.76879996287   35173.76879996287   35173.76879996287
-3.9894787348030722   35620.64043762222   35620.64043762222   35620.64043762222   35620.64043762222   35620.64043762222   35620.64043762222
-3.984469008952651   36067.51207528157   36067.51207528157   36067.51207528157   36067.51207528157   36067.51207528157   36067.51207528157
-3.9794842554029133   36514.38371294091   36514.38371294091   36514.38371294091   36514.38371294091   36514.38371294091   36514.38371294091
-3.974524226426166   36961.25535060027   36961.25535060027   36961.25535060027   36961.25535060027   36961.25535060027   36961.25535060027
-3.9695886779627547   37408.12698825961   37408.12698825961   37408.12698825961   37408.12698825961   37408.12698825961   37408.12698825961
-3.964677369549003   37854.998625918946   37854.998625918946   37854.998625918946   37854.998625918946   37854.998625918946   37854.998625918946
-3.9597900642469144   38301.87026357831   38301.87026357831   38301.87026357831   38301.87026357831   38301.87026357831   38301.87026357831
-3.954926528575582   38655.05331239141   38655.05331239141   38655.05331239141   38655.05331239141   38655.05331239141   38655.05331239141
-3.950086532444259   38912.57768520965   38912.57768520965   38912.57768520965   38912.57768520965   38912.57768520965   38912.57768520965
-3.945269849087041   39170.10205802789   39170.10205802789   39170.10205802789   39170.10205802789   39170.10205802789   39170.10205802789
-3.9404762549991137   39427.62643084612   39427.62643084612   39427.62643084612   39427.62643084612   39427.62643084612   39427.62643084612
-3.935705529874521   39685.150803664365   39685.150803664365   39685.150803664365   39685.150803664365   39685.150803664365   39685.150803664365
-3.9309574565454115   39942.675176482604   39942.675176482604   39942.675176482604   39942.675176482604   39942.675176482604   39942.675176482604
-3.9262318209227196   40200.19954930083   40200.19954930083   40200.19954930083   40200.19954930083   40200.19954930083   40200.19954930083
-3.9215284119382408   40457.72392211908   40457.72392211908   40457.72392211908   40457.72392211908   40457.72392211908   40457.72392211908
-3.916847021488067   40715.248294937315   40715.248294937315   40715.248294937315   40715.248294937315   40715.248294937315   40715.248294937315
