# Neutrino-Ar40 nc cross section (10^-38 cm^2/GeV, natural abundance) # 
# log(energy in GeV)  nu_e      nu_mu      nu_tau      nu_e_bar      nu_mu_bar    nu_tau_bar # 

-5.267349321983568   0.0   0.0   0.0   0.0   0.0   0.0
-5.249198354420286   0.0   0.0   0.0   0.0   0.0   0.0
-5.231370979683245   0.0   0.0   0.0   0.0   0.0   0.0
-5.213855861644066   0.0   0.0   0.0   0.0   0.0   0.0
-5.196642249626443   0.0   0.0   0.0   0.0   0.0   0.0
-5.179719938773375   0.0   0.0   0.0   0.0   0.0   0.0
-5.1630792337124   0.0   0.0   0.0   0.0   0.0   0.0
-5.146710915194865   0.0   0.0   0.0   0.0   0.0   0.0
-5.130606209421823   0.0   0.0   0.0   0.0   0.0   0.0
-5.114756759801046   0.0   0.0   0.0   0.0   0.0   0.0
-5.099154600907518   69.93976055204276   69.93976055204276   69.93976055204276   69.93976055204276   69.93976055204276   69.93976055204276
-5.083792134444297   275.8930252932314   275.8930252932314   275.8930252932314   275.8930252932314   275.8930252932314   275.8930252932314
-5.068662107022123   481.8462900344182   481.8462900344182   481.8462900344182   481.8462900344182   481.8462900344182   481.8462900344182
-5.053757589595104   687.7995547756068   687.7995547756068   687.7995547756068   687.7995547756068   687.7995547756068   687.7995547756068
-5.039071958406543   893.7528195167936   893.7528195167936   893.7528195167936   893.7528195167936   893.7528195167936   893.7528195167936
-5.024598877313762   1099.7060842579804   1099.7060842579804   1099.7060842579804   1099.7060842579804   1099.7060842579804   1099.7060842579804
-5.01033228137385   1305.6593489991672   1305.6593489991672   1305.6593489991672   1305.6593489991672   1305.6593489991672   1305.6593489991672
-4.996266361583923   1511.6126137403558   1511.6126137403558   1511.6126137403558   1511.6126137403558   1511.6126137403558   1511.6126137403558
-4.982395550679802   1717.5658784815425   1717.5658784815425   1717.5658784815425   1717.5658784815425   1717.5658784815425   1717.5658784815425
-4.968714509906206   1923.5191432227311   1923.5191432227311   1923.5191432227311   1923.5191432227311   1923.5191432227311   1923.5191432227311
-4.955218116679793   2129.472407963918   2129.472407963918   2129.472407963918   2129.472407963918   2129.472407963918   2129.472407963918
-4.941901453073702   2335.4256727051047   2335.4256727051047   2335.4256727051047   2335.4256727051047   2335.4256727051047   2335.4256727051047
-4.9287597950588085   2541.3789374462917   2541.3789374462917   2541.3789374462917   2541.3789374462917   2541.3789374462917   2541.3789374462917
-4.915788602442802   2747.33220218748   2747.33220218748   2747.33220218748   2747.33220218748   2747.33220218748   2747.33220218748
-4.902983509453467   2953.285466928667   2953.285466928667   2953.285466928667   2953.285466928667   2953.285466928667   2953.285466928667
-4.890340315917283   3159.2387316698555   3159.2387316698555   3159.2387316698555   3159.2387316698555   3159.2387316698555   3159.2387316698555
-4.877854978988766   3365.1919964110425   3365.1919964110425   3365.1919964110425   3365.1919964110425   3365.1919964110425   3365.1919964110425
-4.865523605389776   3571.145261152229   3571.145261152229   3571.145261152229   3571.145261152229   3571.145261152229   3571.145261152229
-4.8533424441215285   3734.9007349214307   3734.9007349214307   3734.9007349214307   3734.9007349214307   3734.9007349214307   3734.9007349214307
-4.841307879615175   3669.118774282608   3669.118774282608   3669.118774282608   3669.118774282608   3669.118774282608   3669.118774282608
-4.829416425289654   3603.336813643784   3603.336813643784   3603.336813643784   3603.336813643784   3603.336813643784   3603.336813643784
-4.817664717488096   3537.5548530049614   3537.5548530049614   3537.5548530049614   3537.5548530049614   3537.5548530049614   3537.5548530049614
-4.8060495097663996   3471.772892366139   3471.772892366139   3471.772892366139   3471.772892366139   3471.772892366139   3471.772892366139
-4.79456766750971   3405.990931727316   3405.990931727316   3405.990931727316   3405.990931727316   3405.990931727316   3405.990931727316
-4.783216162854482   3340.2089710884934   3340.2089710884934   3340.2089710884934   3340.2089710884934   3340.2089710884934   3340.2089710884934
-4.771992069895517   3274.4270104496695   3274.4270104496695   3274.4270104496695   3274.4270104496695   3274.4270104496695   3274.4270104496695
-4.760892560159027   3208.645049810847   3208.645049810847   3208.645049810847   3208.645049810847   3208.645049810847   3208.645049810847
-4.749914898324179   3142.863089172024   3142.863089172024   3142.863089172024   3142.863089172024   3142.863089172024   3142.863089172024
-4.739056438176942   3077.0811285332015   3077.0811285332015   3077.0811285332015   3077.0811285332015   3077.0811285332015   3077.0811285332015
-4.728314618781261   3011.299167894379   3011.299167894379   3011.299167894379   3011.299167894379   3011.299167894379   3011.299167894379
-4.7176869608536895   2945.5172072555547   2945.5172072555547   2945.5172072555547   2945.5172072555547   2945.5172072555547   2945.5172072555547
-4.707171063328666   2879.7352466167335   2879.7352466167335   2879.7352466167335   2879.7352466167335   2879.7352466167335   2879.7352466167335
-4.6967646001025   2813.9532859779097   2813.9532859779097   2813.9532859779097   2813.9532859779097   2813.9532859779097   2813.9532859779097
-4.6864653169450525   2748.1713253390867   2748.1713253390867   2748.1713253390867   2748.1713253390867   2748.1713253390867   2748.1713253390867
-4.676271028568826   2682.389364700264   2682.389364700264   2682.389364700264   2682.389364700264   2682.389364700264   2682.389364700264
-4.666179615845958   2616.6074040614412   2616.6074040614412   2616.6074040614412   2616.6074040614412   2616.6074040614412   2616.6074040614412
-4.656189023164233   2550.8254434226187   2550.8254434226187   2550.8254434226187   2550.8254434226187   2550.8254434226187   2550.8254434226187
-4.646297255913869   2485.043482783795   2485.043482783795   2485.043482783795   2485.043482783795   2485.043482783795   2485.043482783795
-4.636502378097399   2419.2615221449732   2419.2615221449732   2419.2615221449732   2419.2615221449732   2419.2615221449732   2419.2615221449732
-4.626802510055464   2353.4795615061494   2353.4795615061494   2353.4795615061494   2353.4795615061494   2353.4795615061494   2353.4795615061494
-4.6171958263018595   2287.697600867327   2287.697600867327   2287.697600867327   2287.697600867327   2287.697600867327   2287.697600867327
-4.607680553461583   2293.5602578755256   2293.5602578755256   2293.5602578755256   2293.5602578755256   2293.5602578755256   2293.5602578755256
-4.598254968306055   2299.9153177541493   2299.9153177541493   2299.9153177541493   2299.9153177541493   2299.9153177541493   2299.9153177541493
-4.588917395880086   2306.270377632773   2306.270377632773   2306.270377632773   2306.270377632773   2306.270377632773   2306.270377632773
-4.579666207715477   2312.6254375113967   2312.6254375113967   2312.6254375113967   2312.6254375113967   2312.6254375113967   2312.6254375113967
-4.570499820126498   2318.9804973900204   2318.9804973900204   2318.9804973900204   2318.9804973900204   2318.9804973900204   2318.9804973900204
-4.561416692582785   2325.335557268644   2325.335557268644   2325.335557268644   2325.335557268644   2325.335557268644   2325.335557268644
-4.552415326155466   2331.6906171472683   2331.6906171472683   2331.6906171472683   2331.6906171472683   2331.6906171472683   2331.6906171472683
-4.543494262032605   2338.0456770258916   2338.0456770258916   2338.0456770258916   2338.0456770258916   2338.0456770258916   2338.0456770258916
-4.534652080100275   2344.4007369045157   2344.4007369045157   2344.4007369045157   2344.4007369045157   2344.4007369045157   2344.4007369045157
-4.5258873975858265   2350.7557967831394   2350.7557967831394   2350.7557967831394   2350.7557967831394   2350.7557967831394   2350.7557967831394
-4.517198867760081   2357.110856661763   2357.110856661763   2357.110856661763   2357.110856661763   2357.110856661763   2357.110856661763
-4.508585178695442   2363.465916540387   2363.465916540387   2363.465916540387   2363.465916540387   2363.465916540387   2363.465916540387
-4.500045052077014   2369.8209764190105   2369.8209764190105   2369.8209764190105   2369.8209764190105   2369.8209764190105   2369.8209764190105
-4.49157724206408   2376.1760362976343   2376.1760362976343   2376.1760362976343   2376.1760362976343   2376.1760362976343   2376.1760362976343
-4.483180534199368   2382.531096176258   2382.531096176258   2382.531096176258   2382.531096176258   2382.531096176258   2382.531096176258
-4.474853744363731   2388.8861560548817   2388.8861560548817   2388.8861560548817   2388.8861560548817   2388.8861560548817   2388.8861560548817
-4.466595717773992   2395.2412159335054   2395.2412159335054   2395.2412159335054   2395.2412159335054   2395.2412159335054   2395.2412159335054
-4.458405328021832   2401.596275812129   2401.596275812129   2401.596275812129   2401.596275812129   2401.596275812129   2401.596275812129
-4.450281476151714   2407.951335690753   2407.951335690753   2407.951335690753   2407.951335690753   2407.951335690753   2407.951335690753
-4.4422230897759665   2414.3063955693765   2414.3063955693765   2414.3063955693765   2414.3063955693765   2414.3063955693765   2414.3063955693765
-4.434229122225229   2420.661455448   2420.661455448   2420.661455448   2420.661455448   2420.661455448   2420.661455448
-4.426298551732599   2427.016515326624   2427.016515326624   2427.016515326624   2427.016515326624   2427.016515326624   2427.016515326624
-4.41843038064986   2433.3715752052476   2433.3715752052476   2433.3715752052476   2433.3715752052476   2433.3715752052476   2433.3715752052476
-4.410623634694317   2439.7266350838713   2439.7266350838713   2439.7266350838713   2439.7266350838713   2439.7266350838713   2439.7266350838713
-4.402877362224796   2446.081694962495   2446.081694962495   2446.081694962495   2446.081694962495   2446.081694962495   2446.081694962495
-4.395190633545478   2452.4367548411187   2452.4367548411187   2452.4367548411187   2452.4367548411187   2452.4367548411187   2452.4367548411187
-4.387562540236275   2458.7918147197424   2458.7918147197424   2458.7918147197424   2458.7918147197424   2458.7918147197424   2458.7918147197424
-4.379992194508562   2465.1468745983666   2465.1468745983666   2465.1468745983666   2465.1468745983666   2465.1468745983666   2465.1468745983666
-4.3724787285851106   2471.50193447699   2471.50193447699   2471.50193447699   2471.50193447699   2471.50193447699   2471.50193447699
-4.36502129410314   2477.856994355614   2477.856994355614   2477.856994355614   2477.856994355614   2477.856994355614   2477.856994355614
-4.357619061539469   2484.2120542342377   2484.2120542342377   2484.2120542342377   2484.2120542342377   2484.2120542342377   2484.2120542342377
-4.350271219656783   2490.5671141128614   2490.5671141128614   2490.5671141128614   2490.5671141128614   2490.5671141128614   2490.5671141128614
-4.342976974970094   2496.922173991485   2496.922173991485   2496.922173991485   2496.922173991485   2496.922173991485   2496.922173991485
-4.33573555123253   2503.277233870109   2503.277233870109   2503.277233870109   2503.277233870109   2503.277233870109   2503.277233870109
-4.328546188939597   2509.6322937487325   2509.6322937487325   2509.6322937487325   2509.6322937487325   2509.6322937487325   2509.6322937487325
-4.321408144851139   2515.9873536273562   2515.9873536273562   2515.9873536273562   2515.9873536273562   2515.9873536273562   2515.9873536273562
-4.314320691530246   2522.34241350598   2522.34241350598   2522.34241350598   2522.34241350598   2522.34241350598   2522.34241350598
-4.30728311689837   2528.6974733846037   2528.6974733846037   2528.6974733846037   2528.6974733846037   2528.6974733846037   2528.6974733846037
-4.300294723806006   2535.0525332632274   2535.0525332632274   2535.0525332632274   2535.0525332632274   2535.0525332632274   2535.0525332632274
-4.293354829618257   2541.407593141851   2541.407593141851   2541.407593141851   2541.407593141851   2541.407593141851   2541.407593141851
-4.286462765814683   2547.7626530204748   2547.7626530204748   2547.7626530204748   2547.7626530204748   2547.7626530204748   2547.7626530204748
-4.279617877602854   2568.109612260406   2568.109612260406   2568.109612260406   2568.109612260406   2568.109612260406   2568.109612260406
-4.272819523545026   2594.4628502505557   2594.4628502505557   2594.4628502505557   2594.4628502505557   2594.4628502505557   2594.4628502505557
-4.266067075197434   2620.8160882407046   2620.8160882407046   2620.8160882407046   2620.8160882407046   2620.8160882407046   2620.8160882407046
-4.2593599167616665   2647.1693262308545   2647.1693262308545   2647.1693262308545   2647.1693262308545   2647.1693262308545   2647.1693262308545
-4.252697444747677   2673.5225642210034   2673.5225642210034   2673.5225642210034   2673.5225642210034   2673.5225642210034   2673.5225642210034
-4.246079067647923   2699.8758022111538   2699.8758022111538   2699.8758022111538   2699.8758022111538   2699.8758022111538   2699.8758022111538
-4.239504205622228   2726.2290402013036   2726.2290402013036   2726.2290402013036   2726.2290402013036   2726.2290402013036   2726.2290402013036
-4.232972290192945   2752.5822781914526   2752.5822781914526   2752.5822781914526   2752.5822781914526   2752.5822781914526   2752.5822781914526
-4.226482763949993   2778.9355161816025   2778.9355161816025   2778.9355161816025   2778.9355161816025   2778.9355161816025   2778.9355161816025
-4.220035080265418   2805.2887541717514   2805.2887541717514   2805.2887541717514   2805.2887541717514   2805.2887541717514   2805.2887541717514
-4.213628703017087   2831.6419921619013   2831.6419921619013   2831.6419921619013   2831.6419921619013   2831.6419921619013   2831.6419921619013
-4.207263106321189   2857.995230152051   2857.995230152051   2857.995230152051   2857.995230152051   2857.995230152051   2857.995230152051
-4.2009377742731795   2884.3484681422   2884.3484681422   2884.3484681422   2884.3484681422   2884.3484681422   2884.3484681422
-4.194652200696878   2961.4212557450805   2961.4212557450805   2961.4212557450805   2961.4212557450805   2961.4212557450805   2961.4212557450805
-4.188405888901405   3063.750097193972   3063.750097193972   3063.750097193972   3063.750097193972   3063.750097193972   3063.750097193972
-4.18219835144565   3166.078938642868   3166.078938642868   3166.078938642868   3166.078938642868   3166.078938642868   3166.078938642868
-4.176029109910014   3268.407780091764   3268.407780091764   3268.407780091764   3268.407780091764   3268.407780091764   3268.407780091764
-4.169897694675154   3370.7366215406555   3370.7366215406555   3370.7366215406555   3370.7366215406555   3370.7366215406555   3370.7366215406555
-4.1638036447074525   3473.0654629895516   3473.0654629895516   3473.0654629895516   3473.0654629895516   3473.0654629895516   3473.0654629895516
-4.157746507351008   3575.394304438443   3575.394304438443   3575.394304438443   3575.394304438443   3575.394304438443   3575.394304438443
-4.151725838125865   3677.723145887339   3677.723145887339   3677.723145887339   3677.723145887339   3677.723145887339   3677.723145887339
-4.145741200532293   3780.051987336231   3780.051987336231   3780.051987336231   3780.051987336231   3780.051987336231   3780.051987336231
-4.139792165860892   3882.3808287851266   3882.3808287851266   3882.3808287851266   3882.3808287851266   3882.3808287851266   3882.3808287851266
-4.1338783130082986   3984.7096702340223   3984.7096702340223   3984.7096702340223   3984.7096702340223   3984.7096702340223   3984.7096702340223
-4.127999228298323   4087.0385116829143   4087.0385116829143   4087.0385116829143   4087.0385116829143   4087.0385116829143   4087.0385116829143
-4.1221545053083055   4189.36735313181   4189.36735313181   4189.36735313181   4189.36735313181   4189.36735313181   4189.36735313181
-4.116343744700521   4291.696194580702   4291.696194580702   4291.696194580702   4291.696194580702   4291.696194580702   4291.696194580702
-4.1105665540584555   4394.025036029598   4394.025036029598   4394.025036029598   4394.025036029598   4394.025036029598   4394.025036029598
-4.104822547727777   4496.353877478494   4496.353877478494   4496.353877478494   4496.353877478494   4496.353877478494   4496.353877478494
-4.09911134666186   4598.682718927385   4598.682718927385   4598.682718927385   4598.682718927385   4598.682718927385   4598.682718927385
-4.093432578271681   4701.011560376281   4701.011560376281   4701.011560376281   4701.011560376281   4701.011560376281   4701.011560376281
-4.087785876279969   4803.340401825173   4803.340401825173   4803.340401825173   4803.340401825173   4803.340401825173   4803.340401825173
-4.082170880579437   4905.669243274069   4905.669243274069   4905.669243274069   4905.669243274069   4905.669243274069   4905.669243274069
-4.076587237094976   5007.998084722961   5007.998084722961   5007.998084722961   5007.998084722961   5007.998084722961   5007.998084722961
-4.071034597649678   5111.272448609488   5111.272448609488   5111.272448609488   5111.272448609488   5111.272448609488   5111.272448609488
-4.065512619834558   5215.881438817443   5215.881438817443   5215.881438817443   5215.881438817443   5215.881438817443   5215.881438817443
-4.060020966881844   5320.490429025395   5320.490429025395   5320.490429025395   5320.490429025395   5320.490429025395   5320.490429025395
-4.054559307541739   5425.099419233351   5425.099419233351   5425.099419233351   5425.099419233351   5425.099419233351   5425.099419233351
-4.049127315962527   5529.708409441303   5529.708409441303   5529.708409441303   5529.708409441303   5529.708409441303   5529.708409441303
-4.0437246715739095   5634.317399649259   5634.317399649259   5634.317399649259   5634.317399649259   5634.317399649259   5634.317399649259
-4.038351058973491   5738.926389857214   5738.926389857214   5738.926389857214   5738.926389857214   5738.926389857214   5738.926389857214
-4.0330061678162865   5843.5353800651665   5843.5353800651665   5843.5353800651665   5843.5353800651665   5843.5353800651665   5843.5353800651665
-4.027689692707169   5948.144370273122   5948.144370273122   5948.144370273122   5948.144370273122   5948.144370273122   5948.144370273122
-4.022401333096164   6052.753360481074   6052.753360481074   6052.753360481074   6052.753360481074   6052.753360481074   6052.753360481074
-4.017140793176497   6157.36235068903   6157.36235068903   6157.36235068903   6157.36235068903   6157.36235068903   6157.36235068903
-4.011907781785306   6261.971340896986   6261.971340896986   6261.971340896986   6261.971340896986   6261.971340896986   6261.971340896986
-4.0067020123069375   6358.9236210318395   6358.9236210318395   6358.9236210318395   6358.9236210318395   6358.9236210318395   6358.9236210318395
-4.001523202578754   6433.379169688486   6433.379169688486   6433.379169688486   6433.379169688486   6433.379169688486   6433.379169688486
-3.996371074799364   6507.83471834513   6507.83471834513   6507.83471834513   6507.83471834513   6507.83471834513   6507.83471834513
-3.991245355439195   6582.290267001776   6582.290267001776   6582.290267001776   6582.290267001776   6582.290267001776   6582.290267001776
-3.9861457751533633   6656.745815658419   6656.745815658419   6656.745815658419   6656.745815658419   6656.745815658419   6656.745815658419
-3.981072068696742   6731.201364315066   6731.201364315066   6731.201364315066   6731.201364315066   6731.201364315066   6731.201364315066
-3.9760239748411754   6805.656912971712   6805.656912971712   6805.656912971712   6805.656912971712   6805.656912971712   6805.656912971712
-3.9710012362947777   6880.112461628355   6880.112461628355   6880.112461628355   6880.112461628355   6880.112461628355   6880.112461628355
