# Neutrino-Ar40 nc cross section (10^-38 cm^2/GeV, natural abundance) # 
# log(energy in GeV)  nu_e      nu_mu      nu_tau      nu_e_bar      nu_mu_bar    nu_tau_bar # 

-2.1559963e+00   0.e+00   0.e+00   0.e+00   0.e+00   0.e+00   0.e+00
-2.150258e+00   0.e+00   0.e+00   0.e+00   0.e+00   0.e+00   0.e+00
-2.144595e+00   0.e+00   0.e+00   0.e+00   0.e+00   0.e+00   0.e+00
-2.1390045e+00   0.e+00   0.e+00   0.e+00   0.e+00   0.e+00   0.e+00
-2.133485e+00   0.e+00   0.e+00   0.e+00   0.e+00   0.e+00   0.e+00
-2.128035e+00   0.e+00   0.e+00   0.e+00   0.e+00   0.e+00   0.e+00
-2.1226525e+00   0.e+00   0.e+00   0.e+00   0.e+00   0.e+00   0.e+00
-2.117336e+00   0.e+00   0.e+00   0.e+00   0.e+00   0.e+00   0.e+00
-2.1120837e+00   0.e+00   0.e+00   0.e+00   0.e+00   0.e+00   0.e+00
-2.106894e+00   0.e+00   0.e+00   0.e+00   0.e+00   0.e+00   0.e+00
-2.1017659e+00   0.e+00   0.e+00   0.e+00   0.e+00   0.e+00   0.e+00
-2.0966973e+00   0.e+00   0.e+00   0.e+00   0.e+00   0.e+00   0.e+00
-2.0916874e+00   0.e+00   0.e+00   0.e+00   0.e+00   0.e+00   0.e+00
-2.0867348e+00   0.e+00   0.e+00   0.e+00   0.e+00   0.e+00   0.e+00
-2.0818377e+00   0.e+00   0.e+00   0.e+00   0.e+00   0.e+00   0.e+00
-2.0769954e+00   0.e+00   0.e+00   0.e+00   0.e+00   0.e+00   0.e+00
-2.0722063e+00   0.e+00   0.e+00   0.e+00   0.e+00   0.e+00   0.e+00
-2.0674696e+00   0.e+00   0.e+00   0.e+00   0.e+00   0.e+00   0.e+00
-2.062784e+00   0.e+00   0.e+00   0.e+00   0.e+00   0.e+00   0.e+00
-2.0581484e+00   0.e+00   0.e+00   0.e+00   0.e+00   0.e+00   0.e+00
-2.0535617e+00   0.e+00   0.e+00   0.e+00   0.e+00   0.e+00   0.e+00
-2.049023e+00   0.e+00   0.e+00   0.e+00   0.e+00   0.e+00   0.e+00
-2.044531e+00   0.e+00   0.e+00   0.e+00   0.e+00   0.e+00   0.e+00
-2.0400853e+00   0.e+00   0.e+00   0.e+00   0.e+00   0.e+00   0.e+00
-2.0356846e+00   0.e+00   0.e+00   0.e+00   0.e+00   0.e+00   0.e+00
-2.031328e+00   0.e+00   0.e+00   0.e+00   0.e+00   0.e+00   0.e+00
-2.0270147e+00   9.2498906e-04   9.2498906e-04   9.2498906e-04   9.2498906e-04   9.2498906e-04   9.2498906e-04
-2.0227437e+00   2.557878e-03   2.557878e-03   2.557878e-03   2.557878e-03   2.557878e-03   2.557878e-03
-2.0185144e+00   4.1907667e-03   4.1907667e-03   4.1907667e-03   4.1907667e-03   4.1907667e-03   4.1907667e-03
-2.0143259e+00   5.8236555e-03   5.8236555e-03   5.8236555e-03   5.8236555e-03   5.8236555e-03   5.8236555e-03
-2.0101774e+00   7.4565443e-03   7.4565443e-03   7.4565443e-03   7.4565443e-03   7.4565443e-03   7.4565443e-03
-2.0060682e+00   9.089434e-03   9.089434e-03   9.089434e-03   9.089434e-03   9.089434e-03   9.089434e-03
-2.0019975e+00   1.0722322e-02   1.0722322e-02   1.0722322e-02   1.0722322e-02   1.0722322e-02   1.0722322e-02
-1.9979645e+00   1.2355211e-02   1.2355211e-02   1.2355211e-02   1.2355211e-02   1.2355211e-02   1.2355211e-02
-1.9939686e+00   1.39881e-02   1.39881e-02   1.39881e-02   1.39881e-02   1.39881e-02   1.39881e-02
-1.9900092e+00   1.5620989e-02   1.5620989e-02   1.5620989e-02   1.5620989e-02   1.5620989e-02   1.5620989e-02
-1.9860855e+00   1.7253878e-02   1.7253878e-02   1.7253878e-02   1.7253878e-02   1.7253878e-02   1.7253878e-02
-1.982197e+00   1.8886765e-02   1.8886765e-02   1.8886765e-02   1.8886765e-02   1.8886765e-02   1.8886765e-02
-1.978343e+00   2.0519655e-02   2.0519655e-02   2.0519655e-02   2.0519655e-02   2.0519655e-02   2.0519655e-02
-1.974523e+00   2.0774538e-02   2.0774538e-02   2.0774538e-02   2.0774538e-02   2.0774538e-02   2.0774538e-02
-1.9707361e+00   2.0785691e-02   2.0785691e-02   2.0785691e-02   2.0785691e-02   2.0785691e-02   2.0785691e-02
-1.9669821e+00   2.0796847e-02   2.0796847e-02   2.0796847e-02   2.0796847e-02   2.0796847e-02   2.0796847e-02
-1.9632602e+00   2.0808e-02   2.0808e-02   2.0808e-02   2.0808e-02   2.0808e-02   2.0808e-02
-1.9595699e+00   2.0819155e-02   2.0819155e-02   2.0819155e-02   2.0819155e-02   2.0819155e-02   2.0819155e-02
-1.9559108e+00   2.0830309e-02   2.0830309e-02   2.0830309e-02   2.0830309e-02   2.0830309e-02   2.0830309e-02
-1.9522822e+00   2.0841463e-02   2.0841463e-02   2.0841463e-02   2.0841463e-02   2.0841463e-02   2.0841463e-02
-1.9486836e+00   2.0852618e-02   2.0852618e-02   2.0852618e-02   2.0852618e-02   2.0852618e-02   2.0852618e-02
-1.9451147e+00   2.0863771e-02   2.0863771e-02   2.0863771e-02   2.0863771e-02   2.0863771e-02   2.0863771e-02
-1.9415748e+00   2.0874925e-02   2.0874925e-02   2.0874925e-02   2.0874925e-02   2.0874925e-02   2.0874925e-02
-1.9380636e+00   2.088608e-02   2.088608e-02   2.088608e-02   2.088608e-02   2.088608e-02   2.088608e-02
-1.9345804e+00   2.0897234e-02   2.0897234e-02   2.0897234e-02   2.0897234e-02   2.0897234e-02   2.0897234e-02
-1.9311252e+00   2.1100322e-02   2.1100322e-02   2.1100322e-02   2.1100322e-02   2.1100322e-02   2.1100322e-02
-1.9276971e+00   2.2555148e-02   2.2555148e-02   2.2555148e-02   2.2555148e-02   2.2555148e-02   2.2555148e-02
-1.9242958e+00   2.4009973e-02   2.4009973e-02   2.4009973e-02   2.4009973e-02   2.4009973e-02   2.4009973e-02
-1.920921e+00   2.54648e-02   2.54648e-02   2.54648e-02   2.54648e-02   2.54648e-02   2.54648e-02
-1.9175721e+00   2.6919626e-02   2.6919626e-02   2.6919626e-02   2.6919626e-02   2.6919626e-02   2.6919626e-02
-1.914249e+00   2.8374452e-02   2.8374452e-02   2.8374452e-02   2.8374452e-02   2.8374452e-02   2.8374452e-02
-1.910951e+00   2.9829279e-02   2.9829279e-02   2.9829279e-02   2.9829279e-02   2.9829279e-02   2.9829279e-02
-1.907678e+00   3.1284105e-02   3.1284105e-02   3.1284105e-02   3.1284105e-02   3.1284105e-02   3.1284105e-02
-1.9044293e+00   3.273893e-02   3.273893e-02   3.273893e-02   3.273893e-02   3.273893e-02   3.273893e-02
-1.9012048e+00   3.4193754e-02   3.4193754e-02   3.4193754e-02   3.4193754e-02   3.4193754e-02   3.4193754e-02
-1.8980042e+00   3.564858e-02   3.564858e-02   3.564858e-02   3.564858e-02   3.564858e-02   3.564858e-02
-1.8948269e+00   3.7103407e-02   3.7103407e-02   3.7103407e-02   3.7103407e-02   3.7103407e-02   3.7103407e-02
-1.8916726e+00   3.8558234e-02   3.8558234e-02   3.8558234e-02   3.8558234e-02   3.8558234e-02   3.8558234e-02
-1.8885411e+00   3.9847516e-02   3.9847516e-02   3.9847516e-02   3.9847516e-02   3.9847516e-02   3.9847516e-02
-1.8854321e+00   4.0904578e-02   4.0904578e-02   4.0904578e-02   4.0904578e-02   4.0904578e-02   4.0904578e-02
-1.8823451e+00   4.1961636e-02   4.1961636e-02   4.1961636e-02   4.1961636e-02   4.1961636e-02   4.1961636e-02
-1.87928e+00   4.30187e-02   4.30187e-02   4.30187e-02   4.30187e-02   4.30187e-02   4.30187e-02
-1.8762363e+00   4.4075757e-02   4.4075757e-02   4.4075757e-02   4.4075757e-02   4.4075757e-02   4.4075757e-02
-1.8732138e+00   4.513282e-02   4.513282e-02   4.513282e-02   4.513282e-02   4.513282e-02   4.513282e-02
-1.8702122e+00   4.6189878e-02   4.6189878e-02   4.6189878e-02   4.6189878e-02   4.6189878e-02   4.6189878e-02
-1.8672311e+00   4.724694e-02   4.724694e-02   4.724694e-02   4.724694e-02   4.724694e-02   4.724694e-02
-1.8642704e+00   4.8304e-02   4.8304e-02   4.8304e-02   4.8304e-02   4.8304e-02   4.8304e-02
-1.8613298e+00   4.936106e-02   4.936106e-02   4.936106e-02   4.936106e-02   4.936106e-02   4.936106e-02
-1.8584089e+00   5.041812e-02   5.041812e-02   5.041812e-02   5.041812e-02   5.041812e-02   5.041812e-02
-1.8555076e+00   5.1475182e-02   5.1475182e-02   5.1475182e-02   5.1475182e-02   5.1475182e-02   5.1475182e-02
-1.8526255e+00   5.318146e-02   5.318146e-02   5.318146e-02   5.318146e-02   5.318146e-02   5.318146e-02
-1.8497623e+00   5.65784e-02   5.65784e-02   5.65784e-02   5.65784e-02   5.65784e-02   5.65784e-02
-1.846918e+00   5.997535e-02   5.997535e-02   5.997535e-02   5.997535e-02   5.997535e-02   5.997535e-02
-1.8440921e+00   6.337229e-02   6.337229e-02   6.337229e-02   6.337229e-02   6.337229e-02   6.337229e-02
-1.8412846e+00   6.6769235e-02   6.6769235e-02   6.6769235e-02   6.6769235e-02   6.6769235e-02   6.6769235e-02
-1.838495e+00   7.016618e-02   7.016618e-02   7.016618e-02   7.016618e-02   7.016618e-02   7.016618e-02
-1.8357233e+00   7.356313e-02   7.356313e-02   7.356313e-02   7.356313e-02   7.356313e-02   7.356313e-02
-1.8329692e+00   7.696007e-02   7.696007e-02   7.696007e-02   7.696007e-02   7.696007e-02   7.696007e-02
-1.8302324e+00   8.0357015e-02   8.0357015e-02   8.0357015e-02   8.0357015e-02   8.0357015e-02   8.0357015e-02
-1.8275127e+00   8.375396e-02   8.375396e-02   8.375396e-02   8.375396e-02   8.375396e-02   8.375396e-02
-1.8248099e+00   8.71509e-02   8.71509e-02   8.71509e-02   8.71509e-02   8.71509e-02   8.71509e-02
-1.8221239e+00   9.0547845e-02   9.0547845e-02   9.0547845e-02   9.0547845e-02   9.0547845e-02   9.0547845e-02
-1.8194544e+00   9.3944795e-02   9.3944795e-02   9.3944795e-02   9.3944795e-02   9.3944795e-02   9.3944795e-02
-1.8168012e+00   9.734174e-02   9.734174e-02   9.734174e-02   9.734174e-02   9.734174e-02   9.734174e-02
-1.8141642e+00   1.0073868e-01   1.0073868e-01   1.0073868e-01   1.0073868e-01   1.0073868e-01   1.0073868e-01
-1.811543e+00   1.04135625e-01   1.04135625e-01   1.04135625e-01   1.04135625e-01   1.04135625e-01   1.04135625e-01
-1.8089375e+00   1.0753257e-01   1.0753257e-01   1.0753257e-01   1.0753257e-01   1.0753257e-01   1.0753257e-01
-1.8063476e+00   1.1025144e-01   1.1025144e-01   1.1025144e-01   1.1025144e-01   1.1025144e-01   1.1025144e-01
-1.803773e+00   1.1233033e-01   1.1233033e-01   1.1233033e-01   1.1233033e-01   1.1233033e-01   1.1233033e-01
-1.8012136e+00   1.1440922e-01   1.1440922e-01   1.1440922e-01   1.1440922e-01   1.1440922e-01   1.1440922e-01
-1.7986692e+00   1.16488114e-01   1.16488114e-01   1.16488114e-01   1.16488114e-01   1.16488114e-01   1.16488114e-01
-1.7961397e+00   1.18567e-01   1.18567e-01   1.18567e-01   1.18567e-01   1.18567e-01   1.18567e-01
-1.7936248e+00   1.2064589e-01   1.2064589e-01   1.2064589e-01   1.2064589e-01   1.2064589e-01   1.2064589e-01
-1.7911243e+00   1.2272478e-01   1.2272478e-01   1.2272478e-01   1.2272478e-01   1.2272478e-01   1.2272478e-01
-1.7886381e+00   1.2480367e-01   1.2480367e-01   1.2480367e-01   1.2480367e-01   1.2480367e-01   1.2480367e-01
-1.7861662e+00   1.2688255e-01   1.2688255e-01   1.2688255e-01   1.2688255e-01   1.2688255e-01   1.2688255e-01
-1.7837082e+00   1.2896144e-01   1.2896144e-01   1.2896144e-01   1.2896144e-01   1.2896144e-01   1.2896144e-01
-1.7812641e+00   1.3104033e-01   1.3104033e-01   1.3104033e-01   1.3104033e-01   1.3104033e-01   1.3104033e-01
-1.7788335e+00   1.3311923e-01   1.3311923e-01   1.3311923e-01   1.3311923e-01   1.3311923e-01   1.3311923e-01
-1.7764167e+00   1.3588098e-01   1.3588098e-01   1.3588098e-01   1.3588098e-01   1.3588098e-01   1.3588098e-01
-1.774013e+00   1.4058504e-01   1.4058504e-01   1.4058504e-01   1.4058504e-01   1.4058504e-01   1.4058504e-01
-1.7716227e+00   1.4528911e-01   1.4528911e-01   1.4528911e-01   1.4528911e-01   1.4528911e-01   1.4528911e-01
-1.7692454e+00   1.4999318e-01   1.4999318e-01   1.4999318e-01   1.4999318e-01   1.4999318e-01   1.4999318e-01
-1.7668811e+00   1.5469725e-01   1.5469725e-01   1.5469725e-01   1.5469725e-01   1.5469725e-01   1.5469725e-01
-1.7645296e+00   1.5940133e-01   1.5940133e-01   1.5940133e-01   1.5940133e-01   1.5940133e-01   1.5940133e-01
-1.7621907e+00   1.641054e-01   1.641054e-01   1.641054e-01   1.641054e-01   1.641054e-01   1.641054e-01
-1.7598644e+00   1.6880946e-01   1.6880946e-01   1.6880946e-01   1.6880946e-01   1.6880946e-01   1.6880946e-01
-1.7575505e+00   1.7351353e-01   1.7351353e-01   1.7351353e-01   1.7351353e-01   1.7351353e-01   1.7351353e-01
-1.7552488e+00   1.782176e-01   1.782176e-01   1.782176e-01   1.782176e-01   1.782176e-01   1.782176e-01
-1.7529593e+00   1.8292168e-01   1.8292168e-01   1.8292168e-01   1.8292168e-01   1.8292168e-01   1.8292168e-01
-1.7506818e+00   1.8762575e-01   1.8762575e-01   1.8762575e-01   1.8762575e-01   1.8762575e-01   1.8762575e-01
-1.7484161e+00   1.9232982e-01   1.9232982e-01   1.9232982e-01   1.9232982e-01   1.9232982e-01   1.9232982e-01
-1.7461622e+00   1.9696613e-01   1.9696613e-01   1.9696613e-01   1.9696613e-01   1.9696613e-01   1.9696613e-01
-1.74392e+00   2.0083292e-01   2.0083292e-01   2.0083292e-01   2.0083292e-01   2.0083292e-01   2.0083292e-01
-1.7416892e+00   2.0469971e-01   2.0469971e-01   2.0469971e-01   2.0469971e-01   2.0469971e-01   2.0469971e-01
-1.7394699e+00   2.085665e-01   2.085665e-01   2.085665e-01   2.085665e-01   2.085665e-01   2.085665e-01
-1.7372619e+00   2.124333e-01   2.124333e-01   2.124333e-01   2.124333e-01   2.124333e-01   2.124333e-01
-1.735065e+00   2.1630007e-01   2.1630007e-01   2.1630007e-01   2.1630007e-01   2.1630007e-01   2.1630007e-01
-1.7328792e+00   2.2016686e-01   2.2016686e-01   2.2016686e-01   2.2016686e-01   2.2016686e-01   2.2016686e-01
-1.7307043e+00   2.2403365e-01   2.2403365e-01   2.2403365e-01   2.2403365e-01   2.2403365e-01   2.2403365e-01
-1.7285402e+00   2.2790045e-01   2.2790045e-01   2.2790045e-01   2.2790045e-01   2.2790045e-01   2.2790045e-01
-1.7263869e+00   2.3176722e-01   2.3176722e-01   2.3176722e-01   2.3176722e-01   2.3176722e-01   2.3176722e-01
-1.7242442e+00   2.3563401e-01   2.3563401e-01   2.3563401e-01   2.3563401e-01   2.3563401e-01   2.3563401e-01
-1.722112e+00   2.395008e-01   2.395008e-01   2.395008e-01   2.395008e-01   2.395008e-01   2.395008e-01
-1.7199904e+00   2.433676e-01   2.433676e-01   2.433676e-01   2.433676e-01   2.433676e-01   2.433676e-01
-1.7178789e+00   2.468959e-01   2.468959e-01   2.468959e-01   2.468959e-01   2.468959e-01   2.468959e-01
-1.7157776e+00   2.4983317e-01   2.4983317e-01   2.4983317e-01   2.4983317e-01   2.4983317e-01   2.4983317e-01
-1.7136866e+00   2.5277042e-01   2.5277042e-01   2.5277042e-01   2.5277042e-01   2.5277042e-01   2.5277042e-01
-1.7116054e+00   2.557077e-01   2.557077e-01   2.557077e-01   2.557077e-01   2.557077e-01   2.557077e-01
-1.7095343e+00   2.5864497e-01   2.5864497e-01   2.5864497e-01   2.5864497e-01   2.5864497e-01   2.5864497e-01
-1.707473e+00   2.6158226e-01   2.6158226e-01   2.6158226e-01   2.6158226e-01   2.6158226e-01   2.6158226e-01
-1.7054214e+00   2.645195e-01   2.645195e-01   2.645195e-01   2.645195e-01   2.645195e-01   2.645195e-01
-1.7033795e+00   2.674568e-01   2.674568e-01   2.674568e-01   2.674568e-01   2.674568e-01   2.674568e-01
-1.7013471e+00   2.7039406e-01   2.7039406e-01   2.7039406e-01   2.7039406e-01   2.7039406e-01   2.7039406e-01
-1.6993241e+00   2.7333134e-01   2.7333134e-01   2.7333134e-01   2.7333134e-01   2.7333134e-01   2.7333134e-01
-1.6973106e+00   2.762686e-01   2.762686e-01   2.762686e-01   2.762686e-01   2.762686e-01   2.762686e-01
-1.6953064e+00   2.792059e-01   2.792059e-01   2.792059e-01   2.792059e-01   2.792059e-01   2.792059e-01
-1.6933113e+00   2.8214315e-01   2.8214315e-01   2.8214315e-01   2.8214315e-01   2.8214315e-01   2.8214315e-01
-1.6913254e+00   2.8652498e-01   2.8652498e-01   2.8652498e-01   2.8652498e-01   2.8652498e-01   2.8652498e-01
-1.6893486e+00   2.9169354e-01   2.9169354e-01   2.9169354e-01   2.9169354e-01   2.9169354e-01   2.9169354e-01
-1.6873806e+00   2.9686213e-01   2.9686213e-01   2.9686213e-01   2.9686213e-01   2.9686213e-01   2.9686213e-01
-1.6854216e+00   3.0203068e-01   3.0203068e-01   3.0203068e-01   3.0203068e-01   3.0203068e-01   3.0203068e-01
-1.6834713e+00   3.0719927e-01   3.0719927e-01   3.0719927e-01   3.0719927e-01   3.0719927e-01   3.0719927e-01
-1.6815298e+00   3.1236786e-01   3.1236786e-01   3.1236786e-01   3.1236786e-01   3.1236786e-01   3.1236786e-01
-1.6795969e+00   3.175364e-01   3.175364e-01   3.175364e-01   3.175364e-01   3.175364e-01   3.175364e-01
-1.6776726e+00   3.22705e-01   3.22705e-01   3.22705e-01   3.22705e-01   3.22705e-01   3.22705e-01
-1.6757567e+00   3.278736e-01   3.278736e-01   3.278736e-01   3.278736e-01   3.278736e-01   3.278736e-01
-1.6738493e+00   3.3304214e-01   3.3304214e-01   3.3304214e-01   3.3304214e-01   3.3304214e-01   3.3304214e-01
-1.6719502e+00   3.3821073e-01   3.3821073e-01   3.3821073e-01   3.3821073e-01   3.3821073e-01   3.3821073e-01
-1.6700594e+00   3.4337932e-01   3.4337932e-01   3.4337932e-01   3.4337932e-01   3.4337932e-01   3.4337932e-01
-1.6681768e+00   3.4854788e-01   3.4854788e-01   3.4854788e-01   3.4854788e-01   3.4854788e-01   3.4854788e-01
-1.6663023e+00   3.539231e-01   3.539231e-01   3.539231e-01   3.539231e-01   3.539231e-01   3.539231e-01
-1.6644359e+00   3.606778e-01   3.606778e-01   3.606778e-01   3.606778e-01   3.606778e-01   3.606778e-01
-1.6625775e+00   3.674325e-01   3.674325e-01   3.674325e-01   3.674325e-01   3.674325e-01   3.674325e-01
-1.6607269e+00   3.741872e-01   3.741872e-01   3.741872e-01   3.741872e-01   3.741872e-01   3.741872e-01
-1.6588843e+00   3.809419e-01   3.809419e-01   3.809419e-01   3.809419e-01   3.809419e-01   3.809419e-01
-1.6570494e+00   3.876966e-01   3.876966e-01   3.876966e-01   3.876966e-01   3.876966e-01   3.876966e-01
-1.6552222e+00   3.944513e-01   3.944513e-01   3.944513e-01   3.944513e-01   3.944513e-01   3.944513e-01
-1.6534027e+00   4.01206e-01   4.01206e-01   4.01206e-01   4.01206e-01   4.01206e-01   4.01206e-01
-1.6515907e+00   4.0796068e-01   4.0796068e-01   4.0796068e-01   4.0796068e-01   4.0796068e-01   4.0796068e-01
-1.6497864e+00   4.1471538e-01   4.1471538e-01   4.1471538e-01   4.1471538e-01   4.1471538e-01   4.1471538e-01
-1.6479894e+00   4.2147008e-01   4.2147008e-01   4.2147008e-01   4.2147008e-01   4.2147008e-01   4.2147008e-01
-1.6462e+00   4.2822477e-01   4.2822477e-01   4.2822477e-01   4.2822477e-01   4.2822477e-01   4.2822477e-01
-1.6444178e+00   4.350845e-01   4.350845e-01   4.350845e-01   4.350845e-01   4.350845e-01   4.350845e-01
-1.6426429e+00   4.4233015e-01   4.4233015e-01   4.4233015e-01   4.4233015e-01   4.4233015e-01   4.4233015e-01
-1.6408751e+00   4.4957578e-01   4.4957578e-01   4.4957578e-01   4.4957578e-01   4.4957578e-01   4.4957578e-01
-1.6391146e+00   4.5682144e-01   4.5682144e-01   4.5682144e-01   4.5682144e-01   4.5682144e-01   4.5682144e-01
-1.6373613e+00   4.640671e-01   4.640671e-01   4.640671e-01   4.640671e-01   4.640671e-01   4.640671e-01
-1.6356149e+00   4.7131276e-01   4.7131276e-01   4.7131276e-01   4.7131276e-01   4.7131276e-01   4.7131276e-01
-1.6338755e+00   4.785584e-01   4.785584e-01   4.785584e-01   4.785584e-01   4.785584e-01   4.785584e-01
-1.6321431e+00   4.8580405e-01   4.8580405e-01   4.8580405e-01   4.8580405e-01   4.8580405e-01   4.8580405e-01
-1.6304176e+00   4.930497e-01   4.930497e-01   4.930497e-01   4.930497e-01   4.930497e-01   4.930497e-01
-1.628699e+00   5.0029534e-01   5.0029534e-01   5.0029534e-01   5.0029534e-01   5.0029534e-01   5.0029534e-01
-1.626987e+00   5.07541e-01   5.07541e-01   5.07541e-01   5.07541e-01   5.07541e-01   5.07541e-01
-1.6252817e+00   5.1478666e-01   5.1478666e-01   5.1478666e-01   5.1478666e-01   5.1478666e-01   5.1478666e-01
-1.6235832e+00   5.220323e-01   5.220323e-01   5.220323e-01   5.220323e-01   5.220323e-01   5.220323e-01
-1.6218913e+00   5.289498e-01   5.289498e-01   5.289498e-01   5.289498e-01   5.289498e-01   5.289498e-01
-1.6202059e+00   5.355354e-01   5.355354e-01   5.355354e-01   5.355354e-01   5.355354e-01   5.355354e-01
-1.618527e+00   5.4212093e-01   5.4212093e-01   5.4212093e-01   5.4212093e-01   5.4212093e-01   5.4212093e-01
-1.6168547e+00   5.487065e-01   5.487065e-01   5.487065e-01   5.487065e-01   5.487065e-01   5.487065e-01
-1.6151887e+00   5.55292e-01   5.55292e-01   5.55292e-01   5.55292e-01   5.55292e-01   5.55292e-01
-1.6135292e+00   5.618776e-01   5.618776e-01   5.618776e-01   5.618776e-01   5.618776e-01   5.618776e-01
-1.6118759e+00   5.6846315e-01   5.6846315e-01   5.6846315e-01   5.6846315e-01   5.6846315e-01   5.6846315e-01
-1.6102289e+00   5.750487e-01   5.750487e-01   5.750487e-01   5.750487e-01   5.750487e-01   5.750487e-01
-1.6085881e+00   5.816342e-01   5.816342e-01   5.816342e-01   5.816342e-01   5.816342e-01   5.816342e-01
-1.6069535e+00   5.882198e-01   5.882198e-01   5.882198e-01   5.882198e-01   5.882198e-01   5.882198e-01
