# Neutrino-Ar40 nc cross section (10^-38 cm^2/GeV, natural abundance) # 
# log(energy in GeV)  nu_e      nu_mu      nu_tau      nu_e_bar      nu_mu_bar    nu_tau_bar # 

-4.964364732104951   0.0   0.0   0.0   0.0   0.0   0.0
-4.951139149637477   0.0   0.0   0.0   0.0   0.0   0.0
-4.938086202482567   0.0   0.0   0.0   0.0   0.0   0.0
-4.925201441785313   0.0   0.0   0.0   0.0   0.0   0.0
-4.912480588477547   0.0   0.0   0.0   0.0   0.0   0.0
-4.899919524746574   0.0   0.0   0.0   0.0   0.0   0.0
-4.887514286033089   0.0   0.0   0.0   0.0   0.0   0.0
-4.8752610535194   0.0   0.0   0.0   0.0   0.0   0.0
-4.863156147072312   0.0   0.0   0.0   0.0   0.0   0.0
-4.851196018608068   0.0   0.0   0.0   0.0   0.0   0.0
-4.839377245849394   0.0   0.0   0.0   0.0   0.0   0.0
-4.827696526447192   0.0   0.0   0.0   0.0   0.0   0.0
-4.816150672441585   0.0   0.0   0.0   0.0   0.0   0.0
-4.804736605039099   0.0   0.0   0.0   0.0   0.0   0.0
-4.793451349684572   0.0   0.0   0.0   0.0   0.0   0.0
-4.782292031408036   0.0   0.0   0.0   0.0   0.0   0.0
-4.771255870428379   0.0   0.0   0.0   0.0   0.0   0.0
-4.7603401779969685   0.0   0.0   0.0   0.0   0.0   0.0
-4.749542352465685   0.0   0.0   0.0   0.0   0.0   0.0
-4.738859875564976   0.0   0.0   0.0   0.0   0.0   0.0
-4.728290308878621   0.0   0.0   0.0   0.0   0.0   0.0
-4.7178312905028585   0.0   0.0   0.0   0.0   0.0   0.0
-4.707480531878419   0.0   0.0   0.0   0.0   0.0   0.0
-4.697235814784845   0.0   0.0   0.0   0.0   0.0   0.0
-4.687094988487214   0.0   0.0   0.0   0.0   0.0   0.0
-4.677055967026092   0.0   0.0   0.0   0.0   0.0   0.0
-4.66711672664217   8.536324388648265e-06   8.536324388648265e-06   8.536324388648265e-06   8.536324388648265e-06   8.536324388648265e-06   8.536324388648265e-06
-4.657275303327628   2.295804430306422e-05   2.295804430306422e-05   2.295804430306422e-05   2.295804430306422e-05   2.295804430306422e-05   2.295804430306422e-05
-4.647529790496829   3.7379764217480445e-05   3.7379764217480445e-05   3.7379764217480445e-05   3.7379764217480445e-05   3.7379764217480445e-05   3.7379764217480445e-05
-4.637878336769418   5.1801484131896404e-05   5.1801484131896404e-05   5.1801484131896404e-05   5.1801484131896404e-05   5.1801484131896404e-05   5.1801484131896404e-05
-4.628319143859379   6.622320404631262e-05   6.622320404631262e-05   6.622320404631262e-05   6.622320404631262e-05   6.622320404631262e-05   6.622320404631262e-05
-4.618850464564045   8.064492396072859e-05   8.064492396072859e-05   8.064492396072859e-05   8.064492396072859e-05   8.064492396072859e-05   8.064492396072859e-05
-4.609470600847421   9.506664387514481e-05   9.506664387514481e-05   9.506664387514481e-05   9.506664387514481e-05   9.506664387514481e-05   9.506664387514481e-05
-4.600177902012563   0.00010948836378956076   0.00010948836378956076   0.00010948836378956076   0.00010948836378956076   0.00010948836378956076   0.00010948836378956076
-4.590970762958102   0.000123910083703977   0.000123910083703977   0.000123910083703977   0.000123910083703977   0.000123910083703977   0.000123910083703977
-4.581847622514293   0.00013833180361839294   0.00013833180361839294   0.00013833180361839294   0.00013833180361839294   0.00013833180361839294   0.00013833180361839294
-4.572806961854295   0.00015275352353280917   0.00015275352353280917   0.00015275352353280917   0.00015275352353280917   0.00015275352353280917   0.00015275352353280917
-4.5638473029766065   0.00016717524344722512   0.00016717524344722512   0.00016717524344722512   0.00016717524344722512   0.00016717524344722512   0.00016717524344722512
-4.554967207254905   0.0001815969633616411   0.0001815969633616411   0.0001815969633616411   0.0001815969633616411   0.0001815969633616411   0.0001815969633616411
-4.546165274051694   0.00018200108271459005   0.00018200108271459005   0.00018200108271459005   0.00018200108271459005   0.00018200108271459005   0.00018200108271459005
-4.537440139392438   0.0001806347499132909   0.0001806347499132909   0.0001806347499132909   0.0001806347499132909   0.0001806347499132909   0.0001806347499132909
-4.528790474697046   0.0001792684171119918   0.0001792684171119918   0.0001792684171119918   0.0001792684171119918   0.0001792684171119918   0.0001792684171119918
-4.520214985565736   0.00017790208431069267   0.00017790208431069267   0.00017790208431069267   0.00017790208431069267   0.00017790208431069267   0.00017790208431069267
-4.511712410616526   0.00017653575150939352   0.00017653575150939352   0.00017653575150939352   0.00017653575150939352   0.00017653575150939352   0.00017653575150939352
-4.503281520371731   0.00017516941870809438   0.00017516941870809438   0.00017516941870809438   0.00017516941870809438   0.00017516941870809438   0.00017516941870809438
-4.494921116191006   0.00017380308590679528   0.00017380308590679528   0.00017380308590679528   0.00017380308590679528   0.00017380308590679528   0.00017380308590679528
-4.48663002924862   0.00017243675310549616   0.00017243675310549616   0.00017243675310549616   0.00017243675310549616   0.00017243675310549616   0.00017243675310549616
-4.478407119552783   0.00017107042030419702   0.00017107042030419702   0.00017107042030419702   0.00017107042030419702   0.00017107042030419702   0.00017107042030419702
-4.470251275004963   0.0001697040875028979   0.0001697040875028979   0.0001697040875028979   0.0001697040875028979   0.0001697040875028979   0.0001697040875028979
-4.462161410497259   0.00016833775470159878   0.00016833775470159878   0.00016833775470159878   0.00016833775470159878   0.00016833775470159878   0.00016833775470159878
-4.454136467045983   0.00016697142190029963   0.00016697142190029963   0.00016697142190029963   0.00016697142190029963   0.00016697142190029963   0.00016697142190029963
-4.446175410959741   0.00016756530868149882   0.00016756530868149882   0.00016756530868149882   0.00016756530868149882   0.00016756530868149882   0.00016756530868149882
-4.438277233040365   0.0001768630635459923   0.0001768630635459923   0.0001768630635459923   0.0001768630635459923   0.0001768630635459923   0.0001768630635459923
-4.430440947815146   0.0001861608184104858   0.0001861608184104858   0.0001861608184104858   0.0001861608184104858   0.0001861608184104858   0.0001861608184104858
-4.422665592798934   0.0001954585732749795   0.0001954585732749795   0.0001954585732749795   0.0001954585732749795   0.0001954585732749795   0.0001954585732749795
-4.414950227784685   0.00020475632813947317   0.00020475632813947317   0.00020475632813947317   0.00020475632813947317   0.00020475632813947317   0.00020475632813947317
-4.4072939341611805   0.00021405408300396666   0.00021405408300396666   0.00021405408300396666   0.00021405408300396666   0.00021405408300396666   0.00021405408300396666
-4.399695814256665   0.00022335183786846018   0.00022335183786846018   0.00022335183786846018   0.00022335183786846018   0.00022335183786846018   0.00022335183786846018
-4.392154990707228   0.00023264959273295384   0.00023264959273295384   0.00023264959273295384   0.00023264959273295384   0.00023264959273295384   0.00023264959273295384
-4.384670605848825   0.00024194734759744736   0.00024194734759744736   0.00024194734759744736   0.00024194734759744736   0.00024194734759744736   0.00024194734759744736
-4.3772418211318875   0.0002512451024619408   0.0002512451024619408   0.0002512451024619408   0.0002512451024619408   0.0002512451024619408   0.0002512451024619408
-4.3698678165575044   0.00026054285732643456   0.00026054285732643456   0.00026054285732643456   0.00026054285732643456   0.00026054285732643456   0.00026054285732643456
-4.362547790134252   0.0002698406121909282   0.0002698406121909282   0.0002698406121909282   0.0002698406121909282   0.0002698406121909282   0.0002698406121909282
-4.355280957354756   0.0002791383670554217   0.0002791383670554217   0.0002791383670554217   0.0002791383670554217   0.0002791383670554217   0.0002791383670554217
-4.348066550691127   0.00028643558188047396   0.00028643558188047396   0.00028643558188047396   0.00028643558188047396   0.00028643558188047396   0.00028643558188047396
-4.340903819108481   0.00029156353642179457   0.00029156353642179457   0.00029156353642179457   0.00029156353642179457   0.00029156353642179457   0.00029156353642179457
-4.333792027595753   0.00029669149096311513   0.00029669149096311513   0.00029669149096311513   0.00029669149096311513   0.00029669149096311513   0.00029669149096311513
-4.3267304567130696   0.0003018194455044356   0.0003018194455044356   0.0003018194455044356   0.0003018194455044356   0.0003018194455044356   0.0003018194455044356
-4.319718402155002   0.0003069474000457561   0.0003069474000457561   0.0003069474000457561   0.0003069474000457561   0.0003069474000457561   0.0003069474000457561
-4.312755174329019   0.00031207535458707664   0.00031207535458707664   0.00031207535458707664   0.00031207535458707664   0.00031207535458707664   0.00031207535458707664
-4.30584009794852   0.00031720330912839726   0.00031720330912839726   0.00031720330912839726   0.00031720330912839726   0.00031720330912839726   0.00031720330912839726
-4.298972511639837   0.0003223312636697176   0.0003223312636697176   0.0003223312636697176   0.0003223312636697176   0.0003223312636697176   0.0003223312636697176
-4.292151767562642   0.0003274592182110382   0.0003274592182110382   0.0003274592182110382   0.0003274592182110382   0.0003274592182110382   0.0003274592182110382
-4.285377231043214   0.00033258717275235877   0.00033258717275235877   0.00033258717275235877   0.00033258717275235877   0.00033258717275235877   0.00033258717275235877
-4.278648280220047   0.0003377151272936793   0.0003377151272936793   0.0003377151272936793   0.0003377151272936793   0.0003377151272936793   0.0003377151272936793
-4.27196430570129   0.0003428430818349997   0.0003428430818349997   0.0003428430818349997   0.0003428430818349997   0.0003428430818349997   0.0003428430818349997
-4.265324710233577   0.0003525924282463183   0.0003525924282463183   0.0003525924282463183   0.0003525924282463183   0.0003525924282463183   0.0003525924282463183
-4.258728908381769   0.0003708055021576826   0.0003708055021576826   0.0003708055021576826   0.0003708055021576826   0.0003708055021576826   0.0003708055021576826
-4.2521763262191845   0.0003890185760690466   0.0003890185760690466   0.0003890185760690466   0.0003890185760690466   0.0003890185760690466   0.0003890185760690466
-4.245666401027921   0.0004072316499804106   0.0004072316499804106   0.0004072316499804106   0.0004072316499804106   0.0004072316499804106   0.0004072316499804106
-4.239198581008869   0.000425444723891775   0.000425444723891775   0.000425444723891775   0.000425444723891775   0.000425444723891775   0.000425444723891775
-4.232772325001035   0.0004436577978031394   0.0004436577978031394   0.0004436577978031394   0.0004436577978031394   0.0004436577978031394   0.0004436577978031394
-4.226387102209833   0.0004618708717145034   0.0004618708717145034   0.0004618708717145034   0.0004618708717145034   0.0004618708717145034   0.0004618708717145034
-4.220042391943997   0.0004800839456258674   0.0004800839456258674   0.0004800839456258674   0.0004800839456258674   0.0004800839456258674   0.0004800839456258674
-4.213737683360774   0.0004982970195372317   0.0004982970195372317   0.0004982970195372317   0.0004982970195372317   0.0004982970195372317   0.0004982970195372317
-4.207472475219122   0.0005165100934485957   0.0005165100934485957   0.0005165100934485957   0.0005165100934485957   0.0005165100934485957   0.0005165100934485957
-4.201246275640565   0.0005347231673599601   0.0005347231673599601   0.0005347231673599601   0.0005347231673599601   0.0005347231673599601   0.0005347231673599601
-4.195058601877471   0.0005529362412713241   0.0005529362412713241   0.0005529362412713241   0.0005529362412713241   0.0005529362412713241   0.0005529362412713241
-4.188908980088435   0.0005711493151826885   0.0005711493151826885   0.0005711493151826885   0.0005711493151826885   0.0005711493151826885   0.0005711493151826885
-4.182796945120543   0.0005893623890940525   0.0005893623890940525   0.0005893623890940525   0.0005893623890940525   0.0005893623890940525   0.0005893623890940525
-4.176722040298239   0.0006075754630054165   0.0006075754630054165   0.0006075754630054165   0.0006075754630054165   0.0006075754630054165   0.0006075754630054165
-4.170683817218569   0.0006257885369167808   0.0006257885369167808   0.0006257885369167808   0.0006257885369167808   0.0006257885369167808   0.0006257885369167808
-4.16468183555257   0.0006440016108281448   0.0006440016108281448   0.0006440016108281448   0.0006440016108281448   0.0006440016108281448   0.0006440016108281448
-4.15871566285259   0.0006559813916472876   0.0006559813916472876   0.0006559813916472876   0.0006559813916472876   0.0006559813916472876   0.0006559813916472876
-4.152784874365308   0.0006639243731305151   0.0006639243731305151   0.0006639243731305151   0.0006639243731305151   0.0006639243731305151   0.0006639243731305151
-4.14688905285028   0.0006718673546137426   0.0006718673546137426   0.0006718673546137426   0.0006718673546137426   0.0006718673546137426   0.0006718673546137426
-4.141027788403798   0.0006798103360969698   0.0006798103360969698   0.0006798103360969698   0.0006798103360969698   0.0006798103360969698   0.0006798103360969698
-4.135200678287871   0.0006877533175801976   0.0006877533175801976   0.0006877533175801976   0.0006877533175801976   0.0006877533175801976   0.0006877533175801976
-4.129407326764185   0.0006956962990634248   0.0006956962990634248   0.0006956962990634248   0.0006956962990634248   0.0006956962990634248   0.0006956962990634248
-4.123647344932811   0.0007036392805466524   0.0007036392805466524   0.0007036392805466524   0.0007036392805466524   0.0007036392805466524   0.0007036392805466524
-4.117920350575565   0.0007115822620298799   0.0007115822620298799   0.0007115822620298799   0.0007115822620298799   0.0007115822620298799   0.0007115822620298799
-4.112225968003802   0.0007195252435131072   0.0007195252435131072   0.0007195252435131072   0.0007195252435131072   0.0007195252435131072   0.0007195252435131072
-4.106563827910535   0.0007274682249963347   0.0007274682249963347   0.0007274682249963347   0.0007274682249963347   0.0007274682249963347   0.0007274682249963347
-4.100933567226714   0.0007354112064795622   0.0007354112064795622   0.0007354112064795622   0.0007354112064795622   0.0007354112064795622   0.0007354112064795622
-4.095334828981518   0.0007433541879627894   0.0007433541879627894   0.0007433541879627894   0.0007433541879627894   0.0007433541879627894   0.0007433541879627894
-4.0897672621665535   0.0007558804616140103   0.0007558804616140103   0.0007558804616140103   0.0007558804616140103   0.0007558804616140103   0.0007558804616140103
-4.084230521603796   0.0007763853813903772   0.0007763853813903772   0.0007763853813903772   0.0007763853813903772   0.0007763853813903772   0.0007763853813903772
-4.078724267817182   0.0007968903011667433   0.0007968903011667433   0.0007968903011667433   0.0007968903011667433   0.0007968903011667433   0.0007968903011667433
-4.073248166907702   0.0008173952209431111   0.0008173952209431111   0.0008173952209431111   0.0008173952209431111   0.0008173952209431111   0.0008173952209431111
-4.06780189043191   0.0008379001407194772   0.0008379001407194772   0.0008379001407194772   0.0008379001407194772   0.0008379001407194772   0.0008379001407194772
-4.062385115283709   0.0008584050604958442   0.0008584050604958442   0.0008584050604958442   0.0008584050604958442   0.0008584050604958442   0.0008584050604958442
-4.056997523579333   0.0008789099802722112   0.0008789099802722112   0.0008789099802722112   0.0008789099802722112   0.0008789099802722112   0.0008789099802722112
-4.051638802545405   0.0008994149000485774   0.0008994149000485774   0.0008994149000485774   0.0008994149000485774   0.0008994149000485774   0.0008994149000485774
-4.046308644409978   0.0009199198198249443   0.0009199198198249443   0.0009199198198249443   0.0009199198198249443   0.0009199198198249443   0.0009199198198249443
-4.041006746296465   0.0009404247396013112   0.0009404247396013112   0.0009404247396013112   0.0009404247396013112   0.0009404247396013112   0.0009404247396013112
-4.035732810120371   0.0009609296593776775   0.0009609296593776775   0.0009609296593776775   0.0009609296593776775   0.0009609296593776775   0.0009609296593776775
-4.030486542488725   0.0009814345791540444   0.0009814345791540444   0.0009814345791540444   0.0009814345791540444   0.0009814345791540444   0.0009814345791540444
-4.025267654602142   0.0010019394989304114   0.0010019394989304114   0.0010019394989304114   0.0010019394989304114   0.0010019394989304114   0.0010019394989304114
-4.020075862159428   0.0010211217289616498   0.0010211217289616498   0.0010211217289616498   0.0010211217289616498   0.0010211217289616498   0.0010211217289616498
-4.014910885264645   0.0010349747497290904   0.0010349747497290904   0.0010349747497290904   0.0010349747497290904   0.0010349747497290904   0.0010349747497290904
-4.009772448336569   0.0010488277704965296   0.0010488277704965296   0.0010488277704965296   0.0010488277704965296   0.0010488277704965296   0.0010488277704965296
-4.004660280020453   0.0010626807912639696   0.0010626807912639696   0.0010626807912639696   0.0010626807912639696   0.0010626807912639696   0.0010626807912639696
-3.999574113102048   0.0010765338120314095   0.0010765338120314095   0.0010765338120314095   0.0010765338120314095   0.0010765338120314095   0.0010765338120314095
-3.9945136844237843   0.001090386832798849   0.001090386832798849   0.001090386832798849   0.001090386832798849   0.001090386832798849   0.001090386832798849
-3.9894787348030722   0.001104239853566289   0.001104239853566289   0.001104239853566289   0.001104239853566289   0.001104239853566289   0.001104239853566289
-3.984469008952651   0.001118092874333729   0.001118092874333729   0.001118092874333729   0.001118092874333729   0.001118092874333729   0.001118092874333729
-3.9794842554029133   0.0011319458951011682   0.0011319458951011682   0.0011319458951011682   0.0011319458951011682   0.0011319458951011682   0.0011319458951011682
-3.974524226426166   0.0011457989158686088   0.0011457989158686088   0.0011457989158686088   0.0011457989158686088   0.0011457989158686088   0.0011457989158686088
-3.9695886779627547   0.001159651936636048   0.001159651936636048   0.001159651936636048   0.001159651936636048   0.001159651936636048   0.001159651936636048
-3.964677369549003   0.0011735049574034876   0.0011735049574034876   0.0011735049574034876   0.0011735049574034876   0.0011735049574034876   0.0011735049574034876
-3.9597900642469144   0.001187357978170928   0.001187357978170928   0.001187357978170928   0.001187357978170928   0.001187357978170928   0.001187357978170928
-3.954926528575582   0.001198306652684134   0.001198306652684134   0.001198306652684134   0.001198306652684134   0.001198306652684134   0.001198306652684134
-3.950086532444259   0.0012062899082414995   0.0012062899082414995   0.0012062899082414995   0.0012062899082414995   0.0012062899082414995   0.0012062899082414995
-3.945269849087041   0.001214273163798865   0.001214273163798865   0.001214273163798865   0.001214273163798865   0.001214273163798865   0.001214273163798865
-3.9404762549991137   0.00122225641935623   0.00122225641935623   0.00122225641935623   0.00122225641935623   0.00122225641935623   0.00122225641935623
-3.935705529874521   0.0012302396749135954   0.0012302396749135954   0.0012302396749135954   0.0012302396749135954   0.0012302396749135954   0.0012302396749135954
-3.9309574565454115   0.0012382229304709609   0.0012382229304709609   0.0012382229304709609   0.0012382229304709609   0.0012382229304709609   0.0012382229304709609
-3.9262318209227196   0.001246206186028326   0.001246206186028326   0.001246206186028326   0.001246206186028326   0.001246206186028326   0.001246206186028326
