# Neutrino-Ar40 nc cross section (10^-38 cm^2/GeV, natural abundance) # 
# log(energy in GeV)  nu_e      nu_mu      nu_tau      nu_e_bar      nu_mu_bar    nu_tau_bar # 

-4.964364732104951   -12.806424109629306   -12.806424109629306   -12.806424109629306   -12.806424109629306   -12.806424109629306   -12.806424109629306
-4.951139149637477   -20.554366022675616   -20.554366022675616   -20.554366022675616   -20.554366022675616   -20.554366022675616   -20.554366022675616
-4.938086202482567   -28.302307935721927   -28.302307935721927   -28.302307935721927   -28.302307935721927   -28.302307935721927   -28.302307935721927
-4.925201441785313   -36.05024984876823   -36.05024984876823   -36.05024984876823   -36.05024984876823   -36.05024984876823   -36.05024984876823
-4.912480588477547   -43.79819176181454   -43.79819176181454   -43.79819176181454   -43.79819176181454   -43.79819176181454   -43.79819176181454
-4.899919524746574   -51.546133674860855   -51.546133674860855   -51.546133674860855   -51.546133674860855   -51.546133674860855   -51.546133674860855
-4.887514286033089   -59.29407558790716   -59.29407558790716   -59.29407558790716   -59.29407558790716   -59.29407558790716   -59.29407558790716
-4.8752610535194   -67.0420175009534   -67.0420175009534   -67.0420175009534   -67.0420175009534   -67.0420175009534   -67.0420175009534
-4.863156147072312   -74.78995941399971   -74.78995941399971   -74.78995941399971   -74.78995941399971   -74.78995941399971   -74.78995941399971
-4.851196018608068   -82.53790132704601   -82.53790132704601   -82.53790132704601   -82.53790132704601   -82.53790132704601   -82.53790132704601
-4.839377245849394   -90.2858432400924   -90.2858432400924   -90.2858432400924   -90.2858432400924   -90.2858432400924   -90.2858432400924
-4.827696526447192   -98.03378515313864   -98.03378515313864   -98.03378515313864   -98.03378515313864   -98.03378515313864   -98.03378515313864
-4.816150672441585   -105.78172706618487   -105.78172706618487   -105.78172706618487   -105.78172706618487   -105.78172706618487   -105.78172706618487
-4.804736605039099   -91.03789631487187   -91.03789631487187   -91.03789631487187   -91.03789631487187   -91.03789631487187   -91.03789631487187
-4.793451349684572   -22.788246998729093   -22.788246998729093   -22.788246998729093   -22.788246998729093   -22.788246998729093   -22.788246998729093
-4.782292031408036   45.46140231741241   45.46140231741241   45.46140231741241   45.46140231741241   45.46140231741241   45.46140231741241
-4.771255870428379   113.71105163355391   113.71105163355391   113.71105163355391   113.71105163355391   113.71105163355391   113.71105163355391
-4.7603401779969685   181.96070094969673   181.96070094969673   181.96070094969673   181.96070094969673   181.96070094969673   181.96070094969673
-4.749542352465685   250.2103502658382   250.2103502658382   250.2103502658382   250.2103502658382   250.2103502658382   250.2103502658382
-4.738859875564976   318.459999581981   318.459999581981   318.459999581981   318.459999581981   318.459999581981   318.459999581981
-4.728290308878621   386.7096488981225   386.7096488981225   386.7096488981225   386.7096488981225   386.7096488981225   386.7096488981225
-4.7178312905028585   454.95929821426523   454.95929821426523   454.95929821426523   454.95929821426523   454.95929821426523   454.95929821426523
-4.707480531878419   523.2089475304068   523.2089475304068   523.2089475304068   523.2089475304068   523.2089475304068   523.2089475304068
-4.697235814784845   591.4585968465483   591.4585968465483   591.4585968465483   591.4585968465483   591.4585968465483   591.4585968465483
-4.687094988487214   659.708246162691   659.708246162691   659.708246162691   659.708246162691   659.708246162691   659.708246162691
-4.677055967026092   727.9578954788338   727.9578954788338   727.9578954788338   727.9578954788338   727.9578954788338   727.9578954788338
-4.66711672664217   780.9134407256372   780.9134407256372   780.9134407256372   780.9134407256372   780.9134407256372   780.9134407256372
-4.657275303327628   823.3244181277593   823.3244181277593   823.3244181277593   823.3244181277593   823.3244181277593   823.3244181277593
-4.647529790496829   865.7353955298821   865.7353955298821   865.7353955298821   865.7353955298821   865.7353955298821   865.7353955298821
-4.637878336769418   908.1463729320042   908.1463729320042   908.1463729320042   908.1463729320042   908.1463729320042   908.1463729320042
-4.628319143859379   950.557350334127   950.557350334127   950.557350334127   950.557350334127   950.557350334127   950.557350334127
-4.618850464564045   992.9683277362491   992.9683277362491   992.9683277362491   992.9683277362491   992.9683277362491   992.9683277362491
-4.609470600847421   1035.3793051383718   1035.3793051383718   1035.3793051383718   1035.3793051383718   1035.3793051383718   1035.3793051383718
-4.600177902012563   1077.790282540494   1077.790282540494   1077.790282540494   1077.790282540494   1077.790282540494   1077.790282540494
-4.590970762958102   1120.2012599426168   1120.2012599426168   1120.2012599426168   1120.2012599426168   1120.2012599426168   1120.2012599426168
-4.581847622514293   1162.612237344739   1162.612237344739   1162.612237344739   1162.612237344739   1162.612237344739   1162.612237344739
-4.572806961854295   1205.0232147468619   1205.0232147468619   1205.0232147468619   1205.0232147468619   1205.0232147468619   1205.0232147468619
-4.5638473029766065   1247.4341921489838   1247.4341921489838   1247.4341921489838   1247.4341921489838   1247.4341921489838   1247.4341921489838
-4.554967207254905   1289.8451695511058   1289.8451695511058   1289.8451695511058   1289.8451695511058   1289.8451695511058   1289.8451695511058
-4.546165274051694   1286.0291558941844   1286.0291558941844   1286.0291558941844   1286.0291558941844   1286.0291558941844   1286.0291558941844
-4.537440139392438   1276.3745769602735   1276.3745769602735   1276.3745769602735   1276.3745769602735   1276.3745769602735   1276.3745769602735
-4.528790474697046   1266.7199980263626   1266.7199980263626   1266.7199980263626   1266.7199980263626   1266.7199980263626   1266.7199980263626
-4.520214985565736   1257.065419092452   1257.065419092452   1257.065419092452   1257.065419092452   1257.065419092452   1257.065419092452
-4.511712410616526   1247.4108401585409   1247.4108401585409   1247.4108401585409   1247.4108401585409   1247.4108401585409   1247.4108401585409
-4.503281520371731   1237.75626122463   1237.75626122463   1237.75626122463   1237.75626122463   1237.75626122463   1237.75626122463
-4.494921116191006   1228.1016822907193   1228.1016822907193   1228.1016822907193   1228.1016822907193   1228.1016822907193   1228.1016822907193
-4.48663002924862   1218.4471033568084   1218.4471033568084   1218.4471033568084   1218.4471033568084   1218.4471033568084   1218.4471033568084
-4.478407119552783   1208.7925244228973   1208.7925244228973   1208.7925244228973   1208.7925244228973   1208.7925244228973   1208.7925244228973
-4.470251275004963   1199.1379454889864   1199.1379454889864   1199.1379454889864   1199.1379454889864   1199.1379454889864   1199.1379454889864
-4.462161410497259   1189.4833665550757   1189.4833665550757   1189.4833665550757   1189.4833665550757   1189.4833665550757   1189.4833665550757
-4.454136467045983   1179.8287876211646   1179.8287876211646   1179.8287876211646   1179.8287876211646   1179.8287876211646   1179.8287876211646
-4.446175410959741   1184.0252226342463   1184.0252226342463   1184.0252226342463   1184.0252226342463   1184.0252226342463   1184.0252226342463
-4.438277233040365   1249.7236441037858   1249.7236441037858   1249.7236441037858   1249.7236441037858   1249.7236441037858   1249.7236441037858
-4.430440947815146   1315.4220655733252   1315.4220655733252   1315.4220655733252   1315.4220655733252   1315.4220655733252   1315.4220655733252
-4.422665592798934   1381.1204870428658   1381.1204870428658   1381.1204870428658   1381.1204870428658   1381.1204870428658   1381.1204870428658
-4.414950227784685   1446.8189085124063   1446.8189085124063   1446.8189085124063   1446.8189085124063   1446.8189085124063   1446.8189085124063
-4.4072939341611805   1512.5173299819457   1512.5173299819457   1512.5173299819457   1512.5173299819457   1512.5173299819457   1512.5173299819457
-4.399695814256665   1578.215751451485   1578.215751451485   1578.215751451485   1578.215751451485   1578.215751451485   1578.215751451485
-4.392154990707228   1643.9141729210255   1643.9141729210255   1643.9141729210255   1643.9141729210255   1643.9141729210255   1643.9141729210255
-4.384670605848825   1709.612594390565   1709.612594390565   1709.612594390565   1709.612594390565   1709.612594390565   1709.612594390565
-4.3772418211318875   1775.3110158601044   1775.3110158601044   1775.3110158601044   1775.3110158601044   1775.3110158601044   1775.3110158601044
-4.3698678165575044   1841.009437329645   1841.009437329645   1841.009437329645   1841.009437329645   1841.009437329645   1841.009437329645
-4.362547790134252   1906.7078587991855   1906.7078587991855   1906.7078587991855   1906.7078587991855   1906.7078587991855   1906.7078587991855
-4.355280957354756   1972.406280268725   1972.406280268725   1972.406280268725   1972.406280268725   1972.406280268725   1972.406280268725
-4.348066550691127   2023.9687813366825   2023.9687813366825   2023.9687813366825   2023.9687813366825   2023.9687813366825   2023.9687813366825
-4.340903819108481   2060.203175945092   2060.203175945092   2060.203175945092   2060.203175945092   2060.203175945092   2060.203175945092
-4.333792027595753   2096.4375705535017   2096.4375705535017   2096.4375705535017   2096.4375705535017   2096.4375705535017   2096.4375705535017
-4.3267304567130696   2132.6719651619105   2132.6719651619105   2132.6719651619105   2132.6719651619105   2132.6719651619105   2132.6719651619105
-4.319718402155002   2168.9063597703193   2168.9063597703193   2168.9063597703193   2168.9063597703193   2168.9063597703193   2168.9063597703193
-4.312755174329019   2205.140754378729   2205.140754378729   2205.140754378729   2205.140754378729   2205.140754378729   2205.140754378729
-4.30584009794852   2241.375148987139   2241.375148987139   2241.375148987139   2241.375148987139   2241.375148987139   2241.375148987139
-4.298972511639837   2277.6095435955467   2277.6095435955467   2277.6095435955467   2277.6095435955467   2277.6095435955467   2277.6095435955467
-4.292151767562642   2313.8439382039564   2313.8439382039564   2313.8439382039564   2313.8439382039564   2313.8439382039564   2313.8439382039564
-4.285377231043214   2350.078332812366   2350.078332812366   2350.078332812366   2350.078332812366   2350.078332812366   2350.078332812366
-4.278648280220047   2386.312727420775   2386.312727420775   2386.312727420775   2386.312727420775   2386.312727420775   2386.312727420775
-4.27196430570129   2422.547122029184   2422.547122029184   2422.547122029184   2422.547122029184   2422.547122029184   2422.547122029184
-4.265324710233577   2491.436512954015   2491.436512954015   2491.436512954015   2491.436512954015   2491.436512954015   2491.436512954015
-4.258728908381769   2620.1310444321657   2620.1310444321657   2620.1310444321657   2620.1310444321657   2620.1310444321657   2620.1310444321657
-4.2521763262191845   2748.825575910314   2748.825575910314   2748.825575910314   2748.825575910314   2748.825575910314   2748.825575910314
-4.245666401027921   2877.5201073884623   2877.5201073884623   2877.5201073884623   2877.5201073884623   2877.5201073884623   2877.5201073884623
-4.239198581008869   3006.214638866613   3006.214638866613   3006.214638866613   3006.214638866613   3006.214638866613   3006.214638866613
-4.232772325001035   3134.9091703447634   3134.9091703447634   3134.9091703447634   3134.9091703447634   3134.9091703447634   3134.9091703447634
-4.226387102209833   3263.6037018229117   3263.6037018229117   3263.6037018229117   3263.6037018229117   3263.6037018229117   3263.6037018229117
-4.220042391943997   3392.29823330106   3392.29823330106   3392.29823330106   3392.29823330106   3392.29823330106   3392.29823330106
-4.213737683360774   3520.9927647792106   3520.9927647792106   3520.9927647792106   3520.9927647792106   3520.9927647792106   3520.9927647792106
-4.207472475219122   3649.687296257359   3649.687296257359   3649.687296257359   3649.687296257359   3649.687296257359   3649.687296257359
-4.201246275640565   3778.3818277355094   3778.3818277355094   3778.3818277355094   3778.3818277355094   3778.3818277355094   3778.3818277355094
-4.195058601877471   3907.0763592136573   3907.0763592136573   3907.0763592136573   3907.0763592136573   3907.0763592136573   3907.0763592136573
-4.188908980088435   4035.770890691808   4035.770890691808   4035.770890691808   4035.770890691808   4035.770890691808   4035.770890691808
-4.182796945120543   4164.465422169957   4164.465422169957   4164.465422169957   4164.465422169957   4164.465422169957   4164.465422169957
-4.176722040298239   4293.159953648104   4293.159953648104   4293.159953648104   4293.159953648104   4293.159953648104   4293.159953648104
-4.170683817218569   4421.854485126255   4421.854485126255   4421.854485126255   4421.854485126255   4421.854485126255   4421.854485126255
-4.16468183555257   4550.549016604404   4550.549016604404   4550.549016604404   4550.549016604404   4550.549016604404   4550.549016604404
-4.15871566285259   4635.198773544582   4635.198773544582   4635.198773544582   4635.198773544582   4635.198773544582   4635.198773544582
-4.152784874365308   4691.324295545883   4691.324295545883   4691.324295545883   4691.324295545883   4691.324295545883   4691.324295545883
-4.14688905285028   4747.449817547183   4747.449817547183   4747.449817547183   4747.449817547183   4747.449817547183   4747.449817547183
-4.141027788403798   4803.575339548482   4803.575339548482   4803.575339548482   4803.575339548482   4803.575339548482   4803.575339548482
-4.135200678287871   4859.700861549783   4859.700861549783   4859.700861549783   4859.700861549783   4859.700861549783   4859.700861549783
-4.129407326764185   4915.8263835510825   4915.8263835510825   4915.8263835510825   4915.8263835510825   4915.8263835510825   4915.8263835510825
-4.123647344932811   4971.951905552382   4971.951905552382   4971.951905552382   4971.951905552382   4971.951905552382   4971.951905552382
-4.117920350575565   5028.077427553683   5028.077427553683   5028.077427553683   5028.077427553683   5028.077427553683   5028.077427553683
-4.112225968003802   5084.202949554981   5084.202949554981   5084.202949554981   5084.202949554981   5084.202949554981   5084.202949554981
-4.106563827910535   5140.328471556282   5140.328471556282   5140.328471556282   5140.328471556282   5140.328471556282   5140.328471556282
-4.100933567226714   5196.453993557582   5196.453993557582   5196.453993557582   5196.453993557582   5196.453993557582   5196.453993557582
-4.095334828981518   5252.579515558881   5252.579515558881   5252.579515558881   5252.579515558881   5252.579515558881   5252.579515558881
-4.0897672621665535   5341.090819392392   5341.090819392392   5341.090819392392   5341.090819392392   5341.090819392392   5341.090819392392
-4.084230521603796   5485.97965344967   5485.97965344967   5485.97965344967   5485.97965344967   5485.97965344967   5485.97965344967
-4.078724267817182   5630.868487506943   5630.868487506943   5630.868487506943   5630.868487506943   5630.868487506943   5630.868487506943
-4.073248166907702   5775.757321564226   5775.757321564226   5775.757321564226   5775.757321564226   5775.757321564226   5775.757321564226
-4.06780189043191   5920.646155621498   5920.646155621498   5920.646155621498   5920.646155621498   5920.646155621498   5920.646155621498
-4.062385115283709   6065.534989678777   6065.534989678777   6065.534989678777   6065.534989678777   6065.534989678777   6065.534989678777
-4.056997523579333   6210.423823736054   6210.423823736054   6210.423823736054   6210.423823736054   6210.423823736054   6210.423823736054
-4.051638802545405   6355.312657793327   6355.312657793327   6355.312657793327   6355.312657793327   6355.312657793327   6355.312657793327
-4.046308644409978   6500.201491850605   6500.201491850605   6500.201491850605   6500.201491850605   6500.201491850605   6500.201491850605
-4.041006746296465   6645.090325907883   6645.090325907883   6645.090325907883   6645.090325907883   6645.090325907883   6645.090325907883
-4.035732810120371   6789.979159965155   6789.979159965155   6789.979159965155   6789.979159965155   6789.979159965155   6789.979159965155
-4.030486542488725   6934.867994022434   6934.867994022434   6934.867994022434   6934.867994022434   6934.867994022434   6934.867994022434
-4.025267654602142   7079.756828079711   7079.756828079711   7079.756828079711   7079.756828079711   7079.756828079711   7079.756828079711
-4.020075862159428   7215.299467317342   7215.299467317342   7215.299467317342   7215.299467317342   7215.299467317342   7215.299467317342
-4.014910885264645   7313.185635566537   7313.185635566537   7313.185635566537   7313.185635566537   7313.185635566537   7313.185635566537
-4.009772448336569   7411.071803815725   7411.071803815725   7411.071803815725   7411.071803815725   7411.071803815725   7411.071803815725
-4.004660280020453   7508.957972064916   7508.957972064916   7508.957972064916   7508.957972064916   7508.957972064916   7508.957972064916
-3.999574113102048   7606.844140314107   7606.844140314107   7606.844140314107   7606.844140314107   7606.844140314107   7606.844140314107
-3.9945136844237843   7704.730308563295   7704.730308563295   7704.730308563295   7704.730308563295   7704.730308563295   7704.730308563295
-3.9894787348030722   7802.616476812486   7802.616476812486   7802.616476812486   7802.616476812486   7802.616476812486   7802.616476812486
-3.984469008952651   7900.502645061678   7900.502645061678   7900.502645061678   7900.502645061678   7900.502645061678   7900.502645061678
-3.9794842554029133   7998.388813310866   7998.388813310866   7998.388813310866   7998.388813310866   7998.388813310866   7998.388813310866
-3.974524226426166   8096.274981560061   8096.274981560061   8096.274981560061   8096.274981560061   8096.274981560061   8096.274981560061
-3.9695886779627547   8194.161149809248   8194.161149809248   8194.161149809248   8194.161149809248   8194.161149809248   8194.161149809248
-3.964677369549003   8292.047318058436   8292.047318058436   8292.047318058436   8292.047318058436   8292.047318058436   8292.047318058436
-3.9597900642469144   8389.933486307631   8389.933486307631   8389.933486307631   8389.933486307631   8389.933486307631   8389.933486307631
-3.954926528575582   8467.29739223812   8467.29739223812   8467.29739223812   8467.29739223812   8467.29739223812   8467.29739223812
-3.950086532444259   8523.707492950687   8523.707492950687   8523.707492950687   8523.707492950687   8523.707492950687   8523.707492950687
-3.945269849087041   8580.117593663254   8580.117593663254   8580.117593663254   8580.117593663254   8580.117593663254   8580.117593663254
-3.9404762549991137   8636.527694375818   8636.527694375818   8636.527694375818   8636.527694375818   8636.527694375818   8636.527694375818
-3.935705529874521   8692.937795088386   8692.937795088386   8692.937795088386   8692.937795088386   8692.937795088386   8692.937795088386
-3.9309574565454115   8749.347895800953   8749.347895800953   8749.347895800953   8749.347895800953   8749.347895800953   8749.347895800953
-3.9262318209227196   8805.757996513517   8805.757996513517   8805.757996513517   8805.757996513517   8805.757996513517   8805.757996513517
-3.9215284119382408   8862.168097226087   8862.168097226087   8862.168097226087   8862.168097226087   8862.168097226087   8862.168097226087
-3.916847021488067   8918.578197938652   8918.578197938652   8918.578197938652   8918.578197938652   8918.578197938652   8918.578197938652
