# Neutrino-Ar40 nc cross section (10^-38 cm^2/GeV, natural abundance) # 
# log(energy in GeV)  nu_e      nu_mu      nu_tau      nu_e_bar      nu_mu_bar    nu_tau_bar # 

-4.964364732104951   0.0   0.0   0.0   0.0   0.0   0.0
-4.95115228823253   0.0   0.0   0.0   0.0   0.0   0.0
-4.938112139072703   0.0   0.0   0.0   0.0   0.0   0.0
-4.925239848845467   0.0   0.0   0.0   0.0   0.0   0.0
-4.9125311508967915   0.0   0.0   0.0   0.0   0.0   0.0
-4.8999819392085655   0.0   0.0   0.0   0.0   0.0   0.0
-4.887588260434701   0.0   0.0   0.0   0.0   0.0   0.0
-4.8753463064247295   0.0   0.0   0.0   0.0   0.0   0.0
-4.863252407199522   0.0   0.0   0.0   0.0   0.0   0.0
-4.851303024346722   0.0   0.0   0.0   0.0   0.0   0.0
-4.8394947448061325   0.0   0.0   0.0   0.0   0.0   0.0
-4.827824275017772   0.0   0.0   0.0   0.0   0.0   0.0
-4.81628843540748   0.0   0.0   0.0   0.0   0.0   0.0
-4.804884155186981   0.0   0.0   0.0   0.0   0.0   0.0
-4.7936084674471235   0.0   0.0   0.0   0.0   0.0   0.0
-4.782458504524696   0.0   0.0   0.0   0.0   0.0   0.0
-4.7714314936246955   0.0   0.0   0.0   0.0   0.0   0.0
-4.760524752681346   0.0   0.0   0.0   0.0   0.0   0.0
-4.749735686442412   0.0   0.0   0.0   0.0   0.0   0.0
-4.739061782762493   0.0   0.0   0.0   0.0   0.0   0.0
-4.728500609092067   0.0   0.0   0.0   0.0   0.0   0.0
-4.718049809150006   0.0   0.0   0.0   0.0   0.0   0.0
-4.707707099768171   0.0   0.0   0.0   0.0   0.0   0.0
-4.697470267897521   0.0   0.0   0.0   0.0   0.0   0.0
-4.687337167765924   0.0   0.0   0.0   0.0   0.0   0.0
-4.67730571817852   0.0   0.0   0.0   0.0   0.0   0.0
-4.667373899952153   8.161359670873563e-06   8.161359670873563e-06   8.161359670873563e-06   8.161359670873563e-06   8.161359670873563e-06   8.161359670873563e-06
-4.657539753475971   2.2568657865374994e-05   2.2568657865374994e-05   2.2568657865374994e-05   2.2568657865374994e-05   2.2568657865374994e-05   2.2568657865374994e-05
-4.647801376390789   3.697595605987669e-05   3.697595605987669e-05   3.697595605987669e-05   3.697595605987669e-05   3.697595605987669e-05   3.697595605987669e-05
-4.638156921380384   5.1383254254378394e-05   5.1383254254378394e-05   5.1383254254378394e-05   5.1383254254378394e-05   5.1383254254378394e-05   5.1383254254378394e-05
-4.6286045940682685   6.579055244888009e-05   6.579055244888009e-05   6.579055244888009e-05   6.579055244888009e-05   6.579055244888009e-05   6.579055244888009e-05
-4.619142651013985   8.019785064338179e-05   8.019785064338179e-05   8.019785064338179e-05   8.019785064338179e-05   8.019785064338179e-05   8.019785064338179e-05
-4.609769397803297   9.46051488378835e-05   9.46051488378835e-05   9.46051488378835e-05   9.46051488378835e-05   9.46051488378835e-05   9.46051488378835e-05
-4.600483187227068   0.0001090124470323852   0.0001090124470323852   0.0001090124470323852   0.0001090124470323852   0.0001090124470323852   0.0001090124470323852
-4.59128241754392   0.00012341974522688662   0.00012341974522688662   0.00012341974522688662   0.00012341974522688662   0.00012341974522688662   0.00012341974522688662
-4.582165530822082   0.00013782704342138832   0.00013782704342138832   0.00013782704342138832   0.00013782704342138832   0.00013782704342138832   0.00013782704342138832
-4.57313101135616   0.00015223434161589002   0.00015223434161589002   0.00015223434161589002   0.00015223434161589002   0.00015223434161589002   0.00015223434161589002
-4.564177384154768   0.0001666416398103917   0.0001666416398103917   0.0001666416398103917   0.0001666416398103917   0.0001666416398103917   0.0001666416398103917
-4.55530321349529   0.00018104893800489344   0.00018104893800489344   0.00018104893800489344   0.00018104893800489344   0.00018104893800489344   0.00018104893800489344
-4.546507101542183   0.00018205436969384071   0.00018205436969384071   0.00018205436969384071   0.00018205436969384071   0.00018205436969384071   0.00018205436969384071
-4.537787687025531   0.00018068940322534286   0.00018068940322534286   0.00018068940322534286   0.00018068940322534286   0.00018068940322534286   0.00018068940322534286
-4.529143643976723   0.00017932443675684507   0.00017932443675684507   0.00017932443675684507   0.00017932443675684507   0.00017932443675684507   0.00017932443675684507
-4.520573680518287   0.00017795947028834721   0.00017795947028834721   0.00017795947028834721   0.00017795947028834721   0.00017795947028834721   0.00017795947028834721
-4.51207653770516   0.0001765945038198494   0.0001765945038198494   0.0001765945038198494   0.0001765945038198494   0.0001765945038198494   0.0001765945038198494
-4.503650988414765   0.00017522953735135156   0.00017522953735135156   0.00017522953735135156   0.00017522953735135156   0.00017522953735135156   0.00017522953735135156
-4.495295836283456   0.00017386457088285374   0.00017386457088285374   0.00017386457088285374   0.00017386457088285374   0.00017386457088285374   0.00017386457088285374
-4.487009914687036   0.00017249960441435592   0.00017249960441435592   0.00017249960441435592   0.00017249960441435592   0.00017249960441435592   0.00017249960441435592
-4.4787920857631525   0.00017113463794585806   0.00017113463794585806   0.00017113463794585806   0.00017113463794585806   0.00017113463794585806   0.00017113463794585806
-4.470641239473548   0.00016976967147736027   0.00016976967147736027   0.00016976967147736027   0.00016976967147736027   0.00016976967147736027   0.00016976967147736027
-4.462556292704213   0.00016840470500886242   0.00016840470500886242   0.00016840470500886242   0.00016840470500886242   0.00016840470500886242   0.00016840470500886242
-4.454536188401624   0.00016703973854036462   0.00016703973854036462   0.00016703973854036462   0.00016703973854036462   0.00016703973854036462   0.00016703973854036462
-4.44657989474335   0.0001670911231834095   0.0001670911231834095   0.0001670911231834095   0.0001670911231834095   0.0001670911231834095   0.0001670911231834095
-4.438686404341388   0.0001763795802930386   0.0001763795802930386   0.0001763795802930386   0.0001763795802930386   0.0001763795802930386   0.0001763795802930386
-4.430854733476696   0.00018566803740266774   0.00018566803740266774   0.00018566803740266774   0.00018566803740266774   0.00018566803740266774   0.00018566803740266774
-4.423083921363473   0.00019495649451229684   0.00019495649451229684   0.00019495649451229684   0.00019495649451229684   0.00019495649451229684   0.00019495649451229684
-4.415373029441798   0.00020424495162192578   0.00020424495162192578   0.00020424495162192578   0.00020424495162192578   0.00020424495162192578   0.00020424495162192578
-4.407721140697341   0.00021353340873155507   0.00021353340873155507   0.00021353340873155507   0.00021353340873155507   0.00021353340873155507   0.00021353340873155507
-4.400127359006896   0.00022282186584118401   0.00022282186584118401   0.00022282186584118401   0.00022282186584118401   0.00022282186584118401   0.00022282186584118401
-4.392590808508583   0.00023211032295081328   0.00023211032295081328   0.00023211032295081328   0.00023211032295081328   0.00023211032295081328   0.00023211032295081328
-4.385110632995603   0.00024139878006044222   0.00024139878006044222   0.00024139878006044222   0.00024139878006044222   0.00024139878006044222   0.00024139878006044222
-4.377685995332498   0.0002506872371700713   0.0002506872371700713   0.0002506872371700713   0.0002506872371700713   0.0002506872371700713   0.0002506872371700713
-4.370316076892928   0.0002599756942797005   0.0002599756942797005   0.0002599756942797005   0.0002599756942797005   0.0002599756942797005   0.0002599756942797005
-4.363000077018007   0.0002692641513893296   0.0002692641513893296   0.0002692641513893296   0.0002692641513893296   0.0002692641513893296   0.0002692641513893296
-4.355737212494311   0.0002785526084989587   0.0002785526084989587   0.0002785526084989587   0.0002785526084989587   0.0002785526084989587   0.0002785526084989587
-4.348526717050713   0.00028610739278982943   0.00028610739278982943   0.00028610739278982943   0.00028610739278982943   0.00028610739278982943   0.00028610739278982943
-4.341367840873217   0.00029123021937660875   0.00029123021937660875   0.00029123021937660875   0.00029123021937660875   0.00029123021937660875   0.00029123021937660875
-4.334259850137049   0.0002963530459633879   0.0002963530459633879   0.0002963530459633879   0.0002963530459633879   0.0002963530459633879   0.0002963530459633879
-4.327202026555245   0.0003014758725501671   0.0003014758725501671   0.0003014758725501671   0.0003014758725501671   0.0003014758725501671   0.0003014758725501671
-4.32019366694307   0.0003065986991369463   0.0003065986991369463   0.0003065986991369463   0.0003065986991369463   0.0003065986991369463   0.0003065986991369463
-4.313234082797591   0.00031172152572372556   0.00031172152572372556   0.00031172152572372556   0.00031172152572372556   0.00031172152572372556   0.00031172152572372556
-4.306322599891774   0.00031684435231050476   0.00031684435231050476   0.00031684435231050476   0.00031684435231050476   0.00031684435231050476   0.00031684435231050476
-4.299458557882521   0.00032196717889728386   0.00032196717889728386   0.00032196717889728386   0.00032196717889728386   0.00032196717889728386   0.00032196717889728386
-4.29264130993206   0.0003270900054840632   0.0003270900054840632   0.0003270900054840632   0.0003270900054840632   0.0003270900054840632   0.0003270900054840632
-4.285870222342158   0.0003322128320708423   0.0003322128320708423   0.0003322128320708423   0.0003322128320708423   0.0003322128320708423   0.0003322128320708423
-4.279144674200631   0.0003373356586576215   0.0003373356586576215   0.0003373356586576215   0.0003373356586576215   0.0003373356586576215   0.0003373356586576215
-4.272464057039667   0.0003424584852444008   0.0003424584852444008   0.0003424584852444008   0.0003424584852444008   0.0003424584852444008   0.0003424584852444008
-4.265827774505481   0.0003512082346290546   0.0003512082346290546   0.0003512082346290546   0.0003512082346290546   0.0003512082346290546   0.0003512082346290546
-4.259235242038865   0.00036940309546650745   0.00036940309546650745   0.00036940309546650745   0.00036940309546650745   0.00036940309546650745   0.00036940309546650745
-4.252685886566191   0.00038759795630396   0.00038759795630396   0.00038759795630396   0.00038759795630396   0.00038759795630396   0.00038759795630396
-4.246179146200476   0.00040579281714141316   0.00040579281714141316   0.00040579281714141316   0.00040579281714141316   0.00040579281714141316   0.00040579281714141316
-4.239714469952108   0.00042398767797886567   0.00042398767797886567   0.00042398767797886567   0.00042398767797886567   0.00042398767797886567   0.00042398767797886567
-4.23329131744885   0.00044218253881631855   0.00044218253881631855   0.00044218253881631855   0.00044218253881631855   0.00044218253881631855   0.00044218253881631855
-4.226909158664802   0.0004603773996537714   0.0004603773996537714   0.0004603773996537714   0.0004603773996537714   0.0004603773996537714   0.0004603773996537714
-4.220567473657936   0.0004785722604912242   0.0004785722604912242   0.0004785722604912242   0.0004785722604912242   0.0004785722604912242   0.0004785722604912242
-4.214265752315913   0.0004967671213286771   0.0004967671213286771   0.0004967671213286771   0.0004967671213286771   0.0004967671213286771   0.0004967671213286771
-4.208003494109853   0.00051496198216613   0.00051496198216613   0.00051496198216613   0.00051496198216613   0.00051496198216613   0.00051496198216613
-4.201780207855775   0.0005331568430035829   0.0005331568430035829   0.0005331568430035829   0.0005331568430035829   0.0005331568430035829   0.0005331568430035829
-4.195595411483399   0.0005513517038410353   0.0005513517038410353   0.0005513517038410353   0.0005513517038410353   0.0005513517038410353   0.0005513517038410353
-4.189448631812076   0.0005695465646784882   0.0005695465646784882   0.0005695465646784882   0.0005695465646784882   0.0005695465646784882   0.0005695465646784882
-4.183339404333538   0.000587741425515941   0.000587741425515941   0.000587741425515941   0.000587741425515941   0.000587741425515941   0.000587741425515941
-4.177267273001266   0.0006059362863533939   0.0006059362863533939   0.0006059362863533939   0.0006059362863533939   0.0006059362863533939   0.0006059362863533939
-4.171231790026195   0.0006241311471908467   0.0006241311471908467   0.0006241311471908467   0.0006241311471908467   0.0006241311471908467   0.0006241311471908467
-4.165232515678569   0.0006423260080282995   0.0006423260080282995   0.0006423260080282995   0.0006423260080282995   0.0006423260080282995   0.0006423260080282995
-4.159269018095677   0.0006552426943693476   0.0006552426943693476   0.0006552426943693476   0.0006552426943693476   0.0006552426943693476   0.0006552426943693476
-4.153340873095315   0.000663177732871092   0.000663177732871092   0.000663177732871092   0.000663177732871092   0.000663177732871092   0.000663177732871092
-4.147447663994729   0.000671112771372836   0.000671112771372836   0.000671112771372836   0.000671112771372836   0.000671112771372836   0.000671112771372836
-4.141588981434863   0.0006790478098745802   0.0006790478098745802   0.0006790478098745802   0.0006790478098745802   0.0006790478098745802   0.0006790478098745802
-4.135764423209727   0.0006869828483763242   0.0006869828483763242   0.0006869828483763242   0.0006869828483763242   0.0006869828483763242   0.0006869828483763242
-4.129973594100712   0.0006949178868780686   0.0006949178868780686   0.0006949178868780686   0.0006949178868780686   0.0006949178868780686   0.0006949178868780686
-4.124216105715665   0.000702852925379813   0.000702852925379813   0.000702852925379813   0.000702852925379813   0.000702852925379813   0.000702852925379813
-4.118491576332576   0.0007107879638815571   0.0007107879638815571   0.0007107879638815571   0.0007107879638815571   0.0007107879638815571   0.0007107879638815571
-4.11279963074771   0.0007187230023833011   0.0007187230023833011   0.0007187230023833011   0.0007187230023833011   0.0007187230023833011   0.0007187230023833011
-4.107139900128039   0.0007266580408850453   0.0007266580408850453   0.0007266580408850453   0.0007266580408850453   0.0007266580408850453   0.0007266580408850453
-4.101512021867828   0.0007345930793867896   0.0007345930793867896   0.0007345930793867896   0.0007345930793867896   0.0007345930793867896   0.0007345930793867896
-4.095915639449232   0.000742528117888534   0.000742528117888534   0.000742528117888534   0.000742528117888534   0.000742528117888534   0.000742528117888534
-4.09035040230677   0.0007537274450374918   0.0007537274450374918   0.0007537274450374918   0.0007537274450374918   0.0007537274450374918   0.0007537274450374918
-4.084815965695556   0.0007742118598940818   0.0007742118598940818   0.0007742118598940818   0.0007742118598940818   0.0007742118598940818   0.0007742118598940818
-4.079311990563147   0.0007946962747506727   0.0007946962747506727   0.0007946962747506727   0.0007946962747506727   0.0007946962747506727   0.0007946962747506727
-4.073838143424906   0.0008151806896072635   0.0008151806896072635   0.0008151806896072635   0.0008151806896072635   0.0008151806896072635   0.0008151806896072635
-4.0683940962427565   0.0008356651044638536   0.0008356651044638536   0.0008356651044638536   0.0008356651044638536   0.0008356651044638536   0.0008356651044638536
-4.062979526307216   0.0008561495193204436   0.0008561495193204436   0.0008561495193204436   0.0008561495193204436   0.0008561495193204436   0.0008561495193204436
-4.057594116122608   0.0008766339341770336   0.0008766339341770336   0.0008766339341770336   0.0008766339341770336   0.0008766339341770336   0.0008766339341770336
-4.0522375532953525   0.0008971183490336245   0.0008971183490336245   0.0008971183490336245   0.0008971183490336245   0.0008971183490336245   0.0008971183490336245
-4.046909530425223   0.0009176027638902153   0.0009176027638902153   0.0009176027638902153   0.0009176027638902153   0.0009176027638902153   0.0009176027638902153
-4.041609744999494   0.0009380871787468053   0.0009380871787468053   0.0009380871787468053   0.0009380871787468053   0.0009380871787468053   0.0009380871787468053
-4.036337899289877   0.0009585715936033954   0.0009585715936033954   0.0009585715936033954   0.0009585715936033954   0.0009585715936033954   0.0009585715936033954
-4.031093700252151   0.0009790560084599863   0.0009790560084599863   0.0009790560084599863   0.0009790560084599863   0.0009790560084599863   0.0009790560084599863
-4.025876859428425   0.0009995404233165764   0.0009995404233165764   0.0009995404233165764   0.0009995404233165764   0.0009995404233165764   0.0009995404233165764
-4.020687092851925   0.0010194870725110925   0.0010194870725110925   0.0010194870725110925   0.0010194870725110925   0.0010194870725110925   0.0010194870725110925
-4.015524120954245   0.0010333262402577646   0.0010333262402577646   0.0010333262402577646   0.0010333262402577646   0.0010333262402577646   0.0010333262402577646
-4.0103876684749755   0.0010471654080044367   0.0010471654080044367   0.0010471654080044367   0.0010471654080044367   0.0010471654080044367   0.0010471654080044367
-4.005277464373647   0.0010610045757511095   0.0010610045757511095   0.0010610045757511095   0.0010610045757511095   0.0010610045757511095   0.0010610045757511095
-4.000193241743904   0.001074843743497782   0.001074843743497782   0.001074843743497782   0.001074843743497782   0.001074843743497782   0.001074843743497782
-3.995134737729864   0.0010886829112444541   0.0010886829112444541   0.0010886829112444541   0.0010886829112444541   0.0010886829112444541   0.0010886829112444541
-3.99010169344456   0.0011025220789911262   0.0011025220789911262   0.0011025220789911262   0.0011025220789911262   0.0011025220789911262   0.0011025220789911262
-3.9850938538904455   0.0011163612467377983   0.0011163612467377983   0.0011163612467377983   0.0011163612467377983   0.0011163612467377983   0.0011163612467377983
-3.9801109678818674   0.001130200414484471   0.001130200414484471   0.001130200414484471   0.001130200414484471   0.001130200414484471   0.001130200414484471
-3.9751527879694692   0.0011440395822311436   0.0011440395822311436   0.0011440395822311436   0.0011440395822311436   0.0011440395822311436   0.0011440395822311436
-3.97021907036645   0.0011578787499778157   0.0011578787499778157   0.0011578787499778157   0.0011578787499778157   0.0011578787499778157   0.0011578787499778157
-3.965309574876644   0.001171717917724488   0.001171717917724488   0.001171717917724488   0.001171717917724488   0.001171717917724488   0.001171717917724488
-3.9604240648243465   0.0011855570854711606   0.0011855570854711606   0.0011855570854711606   0.0011855570854711606   0.0011855570854711606   0.0011855570854711606
-3.955562306985854   0.0011972608462061194   0.0011972608462061194   0.0011972608462061194   0.0011972608462061194   0.0011972608462061194   0.0011972608462061194
-3.950724071522658   0.0012052361185079274   0.0012052361185079274   0.0012052361185079274   0.0012052361185079274   0.0012052361185079274   0.0012052361185079274
-3.945909131916244   0.0012132113908097351   0.0012132113908097351   0.0012132113908097351   0.0012132113908097351   0.0012132113908097351   0.0012132113908097351
-3.9411172649044555   0.001221186663111543   0.001221186663111543   0.001221186663111543   0.001221186663111543   0.001221186663111543   0.001221186663111543
-3.9363482504193756   0.001229161935413351   0.001229161935413351   0.001229161935413351   0.001229161935413351   0.001229161935413351   0.001229161935413351
-3.9316018715266847   0.0012371372077151592   0.0012371372077151592   0.0012371372077151592   0.0012371372077151592   0.0012371372077151592   0.0012371372077151592
-3.9268779143664436   0.0012451124800169672   0.0012451124800169672   0.0012451124800169672   0.0012451124800169672   0.0012451124800169672   0.0012451124800169672
