# Neutrino-Ar40 nc cross section (10^-38 cm^2/GeV, natural abundance) # 
# log(energy in GeV)  nu_e      nu_mu      nu_tau      nu_e_bar      nu_mu_bar    nu_tau_bar # 

-5.267349321983568   0.0   0.0   0.0   0.0   0.0   0.0
-5.249198354420286   0.0   0.0   0.0   0.0   0.0   0.0
-5.231370979683245   0.0   0.0   0.0   0.0   0.0   0.0
-5.213855861644066   0.0   0.0   0.0   0.0   0.0   0.0
-5.196642249626443   0.0   0.0   0.0   0.0   0.0   0.0
-5.179719938773375   0.0   0.0   0.0   0.0   0.0   0.0
-5.1630792337124   0.0   0.0   0.0   0.0   0.0   0.0
-5.146710915194865   0.0   0.0   0.0   0.0   0.0   0.0
-5.130606209421823   0.0   0.0   0.0   0.0   0.0   0.0
-5.114756759801046   0.0   0.0   0.0   0.0   0.0   0.0
-5.099154600907518   156.0194658468646   156.0194658468646   156.0194658468646   156.0194658468646   156.0194658468646   156.0194658468646
-5.083792134444297   615.4536718079777   615.4536718079777   615.4536718079777   615.4536718079777   615.4536718079777   615.4536718079777
-5.068662107022123   1074.8878777690866   1074.8878777690866   1074.8878777690866   1074.8878777690866   1074.8878777690866   1074.8878777690866
-5.053757589595104   1534.3220837301997   1534.3220837301997   1534.3220837301997   1534.3220837301997   1534.3220837301997   1534.3220837301997
-5.039071958406543   1993.7562896913084   1993.7562896913084   1993.7562896913084   1993.7562896913084   1993.7562896913084   1993.7562896913084
-5.024598877313762   2453.190495652417   2453.190495652417   2453.190495652417   2453.190495652417   2453.190495652417   2453.190495652417
-5.01033228137385   2912.624701613526   2912.624701613526   2912.624701613526   2912.624701613526   2912.624701613526   2912.624701613526
-4.996266361583923   3372.0589075746393   3372.0589075746393   3372.0589075746393   3372.0589075746393   3372.0589075746393   3372.0589075746393
-4.982395550679802   3831.4931135357483   3831.4931135357483   3831.4931135357483   3831.4931135357483   3831.4931135357483   3831.4931135357483
-4.968714509906206   4290.927319496861   4290.927319496861   4290.927319496861   4290.927319496861   4290.927319496861   4290.927319496861
-4.955218116679793   4750.36152545797   4750.36152545797   4750.36152545797   4750.36152545797   4750.36152545797   4750.36152545797
-4.941901453073702   5209.795731419079   5209.795731419079   5209.795731419079   5209.795731419079   5209.795731419079   5209.795731419079
-4.9287597950588085   5669.229937380188   5669.229937380188   5669.229937380188   5669.229937380188   5669.229937380188   5669.229937380188
-4.915788602442802   6128.664143341301   6128.664143341301   6128.664143341301   6128.664143341301   6128.664143341301   6128.664143341301
-4.902983509453467   6588.09834930241   6588.09834930241   6588.09834930241   6588.09834930241   6588.09834930241   6588.09834930241
-4.890340315917283   7047.532555263523   7047.532555263523   7047.532555263523   7047.532555263523   7047.532555263523   7047.532555263523
-4.877854978988766   7506.966761224631   7506.966761224631   7506.966761224631   7506.966761224631   7506.966761224631   7506.966761224631
-4.865523605389776   7966.40096718574   7966.40096718574   7966.40096718574   7966.40096718574   7966.40096718574   7966.40096718574
-4.8533424441215285   8331.701639440113   8331.701639440113   8331.701639440113   8331.701639440113   8331.701639440113   8331.701639440113
-4.841307879615175   8184.957265707355   8184.957265707355   8184.957265707355   8184.957265707355   8184.957265707355   8184.957265707355
-4.829416425289654   8038.212891974594   8038.212891974594   8038.212891974594   8038.212891974594   8038.212891974594   8038.212891974594
-4.817664717488096   7891.468518241836   7891.468518241836   7891.468518241836   7891.468518241836   7891.468518241836   7891.468518241836
-4.8060495097663996   7744.724144509078   7744.724144509078   7744.724144509078   7744.724144509078   7744.724144509078   7744.724144509078
-4.79456766750971   7597.979770776319   7597.979770776319   7597.979770776319   7597.979770776319   7597.979770776319   7597.979770776319
-4.783216162854482   7451.235397043561   7451.235397043561   7451.235397043561   7451.235397043561   7451.235397043561   7451.235397043561
-4.771992069895517   7304.4910233108   7304.4910233108   7304.4910233108   7304.4910233108   7304.4910233108   7304.4910233108
-4.760892560159027   7157.746649578042   7157.746649578042   7157.746649578042   7157.746649578042   7157.746649578042   7157.746649578042
-4.749914898324179   7011.002275845283   7011.002275845283   7011.002275845283   7011.002275845283   7011.002275845283   7011.002275845283
-4.739056438176942   6864.257902112526   6864.257902112526   6864.257902112526   6864.257902112526   6864.257902112526   6864.257902112526
-4.728314618781261   6717.513528379767   6717.513528379767   6717.513528379767   6717.513528379767   6717.513528379767   6717.513528379767
-4.7176869608536895   6570.769154647006   6570.769154647006   6570.769154647006   6570.769154647006   6570.769154647006   6570.769154647006
-4.707171063328666   6424.02478091425   6424.02478091425   6424.02478091425   6424.02478091425   6424.02478091425   6424.02478091425
-4.6967646001025   6277.28040718149   6277.28040718149   6277.28040718149   6277.28040718149   6277.28040718149   6277.28040718149
-4.6864653169450525   6130.536033448731   6130.536033448731   6130.536033448731   6130.536033448731   6130.536033448731   6130.536033448731
-4.676271028568826   5983.791659715973   5983.791659715973   5983.791659715973   5983.791659715973   5983.791659715973   5983.791659715973
-4.666179615845958   5837.047285983215   5837.047285983215   5837.047285983215   5837.047285983215   5837.047285983215   5837.047285983215
-4.656189023164233   5690.302912250456   5690.302912250456   5690.302912250456   5690.302912250456   5690.302912250456   5690.302912250456
-4.646297255913869   5543.5585385176955   5543.5585385176955   5543.5585385176955   5543.5585385176955   5543.5585385176955   5543.5585385176955
-4.636502378097399   5396.814164784941   5396.814164784941   5396.814164784941   5396.814164784941   5396.814164784941   5396.814164784941
-4.626802510055464   5250.069791052179   5250.069791052179   5250.069791052179   5250.069791052179   5250.069791052179   5250.069791052179
-4.6171958263018595   5103.325417319421   5103.325417319421   5103.325417319421   5103.325417319421   5103.325417319421   5103.325417319421
-4.607680553461583   5116.403652183864   5116.403652183864   5116.403652183864   5116.403652183864   5116.403652183864   5116.403652183864
-4.598254968306055   5130.580324220794   5130.580324220794   5130.580324220794   5130.580324220794   5130.580324220794   5130.580324220794
-4.588917395880086   5144.756996257724   5144.756996257724   5144.756996257724   5144.756996257724   5144.756996257724   5144.756996257724
-4.579666207715477   5158.933668294654   5158.933668294654   5158.933668294654   5158.933668294654   5158.933668294654   5158.933668294654
-4.570499820126498   5173.110340331584   5173.110340331584   5173.110340331584   5173.110340331584   5173.110340331584   5173.110340331584
-4.561416692582785   5187.287012368513   5187.287012368513   5187.287012368513   5187.287012368513   5187.287012368513   5187.287012368513
-4.552415326155466   5201.463684405444   5201.463684405444   5201.463684405444   5201.463684405444   5201.463684405444   5201.463684405444
-4.543494262032605   5215.640356442374   5215.640356442374   5215.640356442374   5215.640356442374   5215.640356442374   5215.640356442374
-4.534652080100275   5229.817028479303   5229.817028479303   5229.817028479303   5229.817028479303   5229.817028479303   5229.817028479303
-4.5258873975858265   5243.993700516233   5243.993700516233   5243.993700516233   5243.993700516233   5243.993700516233   5243.993700516233
-4.517198867760081   5258.170372553163   5258.170372553163   5258.170372553163   5258.170372553163   5258.170372553163   5258.170372553163
-4.508585178695442   5272.347044590093   5272.347044590093   5272.347044590093   5272.347044590093   5272.347044590093   5272.347044590093
-4.500045052077014   5286.523716627023   5286.523716627023   5286.523716627023   5286.523716627023   5286.523716627023   5286.523716627023
-4.49157724206408   5300.700388663952   5300.700388663952   5300.700388663952   5300.700388663952   5300.700388663952   5300.700388663952
-4.483180534199368   5314.877060700882   5314.877060700882   5314.877060700882   5314.877060700882   5314.877060700882   5314.877060700882
-4.474853744363731   5329.053732737812   5329.053732737812   5329.053732737812   5329.053732737812   5329.053732737812   5329.053732737812
-4.466595717773992   5343.230404774742   5343.230404774742   5343.230404774742   5343.230404774742   5343.230404774742   5343.230404774742
-4.458405328021832   5357.407076811672   5357.407076811672   5357.407076811672   5357.407076811672   5357.407076811672   5357.407076811672
-4.450281476151714   5371.583748848602   5371.583748848602   5371.583748848602   5371.583748848602   5371.583748848602   5371.583748848602
-4.4422230897759665   5385.760420885532   5385.760420885532   5385.760420885532   5385.760420885532   5385.760420885532   5385.760420885532
-4.434229122225229   5399.9370929224615   5399.9370929224615   5399.9370929224615   5399.9370929224615   5399.9370929224615   5399.9370929224615
-4.426298551732599   5414.113764959391   5414.113764959391   5414.113764959391   5414.113764959391   5414.113764959391   5414.113764959391
-4.41843038064986   5428.290436996322   5428.290436996322   5428.290436996322   5428.290436996322   5428.290436996322   5428.290436996322
-4.410623634694317   5442.467109033251   5442.467109033251   5442.467109033251   5442.467109033251   5442.467109033251   5442.467109033251
-4.402877362224796   5456.643781070181   5456.643781070181   5456.643781070181   5456.643781070181   5456.643781070181   5456.643781070181
-4.395190633545478   5470.8204531071115   5470.8204531071115   5470.8204531071115   5470.8204531071115   5470.8204531071115   5470.8204531071115
-4.387562540236275   5484.99712514404   5484.99712514404   5484.99712514404   5484.99712514404   5484.99712514404   5484.99712514404
-4.379992194508562   5499.173797180971   5499.173797180971   5499.173797180971   5499.173797180971   5499.173797180971   5499.173797180971
-4.3724787285851106   5513.3504692179   5513.3504692179   5513.3504692179   5513.3504692179   5513.3504692179   5513.3504692179
-4.36502129410314   5527.52714125483   5527.52714125483   5527.52714125483   5527.52714125483   5527.52714125483   5527.52714125483
-4.357619061539469   5541.7038132917605   5541.7038132917605   5541.7038132917605   5541.7038132917605   5541.7038132917605   5541.7038132917605
-4.350271219656783   5555.88048532869   5555.88048532869   5555.88048532869   5555.88048532869   5555.88048532869   5555.88048532869
-4.342976974970094   5570.05715736562   5570.05715736562   5570.05715736562   5570.05715736562   5570.05715736562   5570.05715736562
-4.33573555123253   5584.233829402549   5584.233829402549   5584.233829402549   5584.233829402549   5584.233829402549   5584.233829402549
-4.328546188939597   5598.41050143948   5598.41050143948   5598.41050143948   5598.41050143948   5598.41050143948   5598.41050143948
-4.321408144851139   5612.58717347641   5612.58717347641   5612.58717347641   5612.58717347641   5612.58717347641   5612.58717347641
-4.314320691530246   5626.763845513339   5626.763845513339   5626.763845513339   5626.763845513339   5626.763845513339   5626.763845513339
-4.30728311689837   5640.94051755027   5640.94051755027   5640.94051755027   5640.94051755027   5640.94051755027   5640.94051755027
-4.300294723806006   5655.117189587199   5655.117189587199   5655.117189587199   5655.117189587199   5655.117189587199   5655.117189587199
-4.293354829618257   5669.293861624129   5669.293861624129   5669.293861624129   5669.293861624129   5669.293861624129   5669.293861624129
-4.286462765814683   5683.470533661059   5683.470533661059   5683.470533661059   5683.470533661059   5683.470533661059   5683.470533661059
-4.279617877602854   5728.859904273213   5728.859904273213   5728.859904273213   5728.859904273213   5728.859904273213   5728.859904273213
-4.272819523545026   5787.647896712778   5787.647896712778   5787.647896712778   5787.647896712778   5787.647896712778   5787.647896712778
-4.266067075197434   5846.435889152341   5846.435889152341   5846.435889152341   5846.435889152341   5846.435889152341   5846.435889152341
-4.2593599167616665   5905.223881591906   5905.223881591906   5905.223881591906   5905.223881591906   5905.223881591906   5905.223881591906
-4.252697444747677   5964.011874031469   5964.011874031469   5964.011874031469   5964.011874031469   5964.011874031469   5964.011874031469
-4.246079067647923   6022.799866471034   6022.799866471034   6022.799866471034   6022.799866471034   6022.799866471034   6022.799866471034
-4.239504205622228   6081.5878589106   6081.5878589106   6081.5878589106   6081.5878589106   6081.5878589106   6081.5878589106
-4.232972290192945   6140.3758513501625   6140.3758513501625   6140.3758513501625   6140.3758513501625   6140.3758513501625   6140.3758513501625
-4.226482763949993   6199.163843789727   6199.163843789727   6199.163843789727   6199.163843789727   6199.163843789727   6199.163843789727
-4.220035080265418   6257.951836229291   6257.951836229291   6257.951836229291   6257.951836229291   6257.951836229291   6257.951836229291
-4.213628703017087   6316.739828668856   6316.739828668856   6316.739828668856   6316.739828668856   6316.739828668856   6316.739828668856
-4.207263106321189   6375.527821108421   6375.527821108421   6375.527821108421   6375.527821108421   6375.527821108421   6375.527821108421
-4.2009377742731795   6434.315813547984   6434.315813547984   6434.315813547984   6434.315813547984   6434.315813547984   6434.315813547984
-4.194652200696878   6606.247416662101   6606.247416662101   6606.247416662101   6606.247416662101   6606.247416662101   6606.247416662101
-4.188405888901405   6834.519447586553   6834.519447586553   6834.519447586553   6834.519447586553   6834.519447586553   6834.519447586553
-4.18219835144565   7062.7914785110115   7062.7914785110115   7062.7914785110115   7062.7914785110115   7062.7914785110115   7062.7914785110115
-4.176029109910014   7291.063509435471   7291.063509435471   7291.063509435471   7291.063509435471   7291.063509435471   7291.063509435471
-4.169897694675154   7519.335540359923   7519.335540359923   7519.335540359923   7519.335540359923   7519.335540359923   7519.335540359923
-4.1638036447074525   7747.607571284382   7747.607571284382   7747.607571284382   7747.607571284382   7747.607571284382   7747.607571284382
-4.157746507351008   7975.879602208834   7975.879602208834   7975.879602208834   7975.879602208834   7975.879602208834   7975.879602208834
-4.151725838125865   8204.151633133293   8204.151633133293   8204.151633133293   8204.151633133293   8204.151633133293   8204.151633133293
-4.145741200532293   8432.423664057744   8432.423664057744   8432.423664057744   8432.423664057744   8432.423664057744   8432.423664057744
-4.139792165860892   8660.695694982203   8660.695694982203   8660.695694982203   8660.695694982203   8660.695694982203   8660.695694982203
-4.1338783130082986   8888.967725906663   8888.967725906663   8888.967725906663   8888.967725906663   8888.967725906663   8888.967725906663
-4.127999228298323   9117.239756831113   9117.239756831113   9117.239756831113   9117.239756831113   9117.239756831113   9117.239756831113
-4.1221545053083055   9345.511787755575   9345.511787755575   9345.511787755575   9345.511787755575   9345.511787755575   9345.511787755575
-4.116343744700521   9573.783818680025   9573.783818680025   9573.783818680025   9573.783818680025   9573.783818680025   9573.783818680025
-4.1105665540584555   9802.055849604485   9802.055849604485   9802.055849604485   9802.055849604485   9802.055849604485   9802.055849604485
-4.104822547727777   10030.327880528945   10030.327880528945   10030.327880528945   10030.327880528945   10030.327880528945   10030.327880528945
-4.09911134666186   10258.599911453395   10258.599911453395   10258.599911453395   10258.599911453395   10258.599911453395   10258.599911453395
-4.093432578271681   10486.871942377855   10486.871942377855   10486.871942377855   10486.871942377855   10486.871942377855   10486.871942377855
-4.087785876279969   10715.143973302307   10715.143973302307   10715.143973302307   10715.143973302307   10715.143973302307   10715.143973302307
-4.082170880579437   10943.416004226765   10943.416004226765   10943.416004226765   10943.416004226765   10943.416004226765   10943.416004226765
-4.076587237094976   11171.688035151215   11171.688035151215   11171.688035151215   11171.688035151215   11171.688035151215   11171.688035151215
-4.071034597649678   11402.069308436545   11402.069308436545   11402.069308436545   11402.069308436545   11402.069308436545   11402.069308436545
-4.065512619834558   11635.427825054294   11635.427825054294   11635.427825054294   11635.427825054294   11635.427825054294   11635.427825054294
-4.060020966881844   11868.786341672032   11868.786341672032   11868.786341672032   11868.786341672032   11868.786341672032   11868.786341672032
-4.054559307541739   12102.144858289781   12102.144858289781   12102.144858289781   12102.144858289781   12102.144858289781   12102.144858289781
-4.049127315962527   12335.50337490752   12335.50337490752   12335.50337490752   12335.50337490752   12335.50337490752   12335.50337490752
-4.0437246715739095   12568.861891525268   12568.861891525268   12568.861891525268   12568.861891525268   12568.861891525268   12568.861891525268
-4.038351058973491   12802.220408143015   12802.220408143015   12802.220408143015   12802.220408143015   12802.220408143015   12802.220408143015
-4.0330061678162865   13035.578924760755   13035.578924760755   13035.578924760755   13035.578924760755   13035.578924760755   13035.578924760755
-4.027689692707169   13268.937441378503   13268.937441378503   13268.937441378503   13268.937441378503   13268.937441378503   13268.937441378503
-4.022401333096164   13502.295957996243   13502.295957996243   13502.295957996243   13502.295957996243   13502.295957996243   13502.295957996243
-4.017140793176497   13735.654474613992   13735.654474613992   13735.654474613992   13735.654474613992   13735.654474613992   13735.654474613992
-4.011907781785306   13969.012991231739   13969.012991231739   13969.012991231739   13969.012991231739   13969.012991231739   13969.012991231739
-4.0067020123069375   14185.291154609491   14185.291154609491   14185.291154609491   14185.291154609491   14185.291154609491   14185.291154609491
-4.001523202578754   14351.384301612778   14351.384301612778   14351.384301612778   14351.384301612778   14351.384301612778   14351.384301612778
-3.996371074799364   14517.47744861606   14517.47744861606   14517.47744861606   14517.47744861606   14517.47744861606   14517.47744861606
-3.991245355439195   14683.570595619347   14683.570595619347   14683.570595619347   14683.570595619347   14683.570595619347   14683.570595619347
-3.9861457751533633   14849.66374262263   14849.66374262263   14849.66374262263   14849.66374262263   14849.66374262263   14849.66374262263
-3.981072068696742   15015.756889625916   15015.756889625916   15015.756889625916   15015.756889625916   15015.756889625916   15015.756889625916
-3.9760239748411754   15181.850036629205   15181.850036629205   15181.850036629205   15181.850036629205   15181.850036629205   15181.850036629205
-3.9710012362947777   15347.943183632486   15347.943183632486   15347.943183632486   15347.943183632486   15347.943183632486   15347.943183632486
-3.9660035996232392   15514.036330635774   15514.036330635774   15514.036330635774   15514.036330635774   15514.036330635774   15514.036330635774
