# Neutrino-Ar40 nc cross section (10^-38 cm^2/GeV, natural abundance) # 
# log(energy in GeV)  nu_e      nu_mu      nu_tau      nu_e_bar      nu_mu_bar    nu_tau_bar # 

-4.964364732104951   -8.212815461610098e-07   -8.212815461610098e-07   -8.212815461610098e-07   -8.212815461610098e-07   -8.212815461610098e-07   -8.212815461610098e-07
-4.95115228823253   -1.4831005681584837e-06   -1.4831005681584837e-06   -1.4831005681584837e-06   -1.4831005681584837e-06   -1.4831005681584837e-06   -1.4831005681584837e-06
-4.938112139072703   -2.144919590155951e-06   -2.144919590155951e-06   -2.144919590155951e-06   -2.144919590155951e-06   -2.144919590155951e-06   -2.144919590155951e-06
-4.925239848845467   -2.8067386121534252e-06   -2.8067386121534252e-06   -2.8067386121534252e-06   -2.8067386121534252e-06   -2.8067386121534252e-06   -2.8067386121534252e-06
-4.9125311508967915   -3.468557634150899e-06   -3.468557634150899e-06   -3.468557634150899e-06   -3.468557634150899e-06   -3.468557634150899e-06   -3.468557634150899e-06
-4.8999819392085655   -4.130376656148373e-06   -4.130376656148373e-06   -4.130376656148373e-06   -4.130376656148373e-06   -4.130376656148373e-06   -4.130376656148373e-06
-4.887588260434701   -4.792195678145841e-06   -4.792195678145841e-06   -4.792195678145841e-06   -4.792195678145841e-06   -4.792195678145841e-06   -4.792195678145841e-06
-4.8753463064247295   -5.454014700143315e-06   -5.454014700143315e-06   -5.454014700143315e-06   -5.454014700143315e-06   -5.454014700143315e-06   -5.454014700143315e-06
-4.863252407199522   -6.115833722140788e-06   -6.115833722140788e-06   -6.115833722140788e-06   -6.115833722140788e-06   -6.115833722140788e-06   -6.115833722140788e-06
-4.851303024346722   -6.777652744138262e-06   -6.777652744138262e-06   -6.777652744138262e-06   -6.777652744138262e-06   -6.777652744138262e-06   -6.777652744138262e-06
-4.8394947448061325   -7.439471766135736e-06   -7.439471766135736e-06   -7.439471766135736e-06   -7.439471766135736e-06   -7.439471766135736e-06   -7.439471766135736e-06
-4.827824275017772   -8.101290788133198e-06   -8.101290788133198e-06   -8.101290788133198e-06   -8.101290788133198e-06   -8.101290788133198e-06   -8.101290788133198e-06
-4.81628843540748   -8.763109810130672e-06   -8.763109810130672e-06   -8.763109810130672e-06   -8.763109810130672e-06   -8.763109810130672e-06   -8.763109810130672e-06
-4.804884155186981   -7.633783511040249e-06   -7.633783511040249e-06   -7.633783511040249e-06   -7.633783511040249e-06   -7.633783511040249e-06   -7.633783511040249e-06
-4.7936084674471235   -1.9717629300125152e-06   -1.9717629300125152e-06   -1.9717629300125152e-06   -1.9717629300125152e-06   -1.9717629300125152e-06   -1.9717629300125152e-06
-4.782458504524696   3.6902576510152185e-06   3.6902576510152185e-06   3.6902576510152185e-06   3.6902576510152185e-06   3.6902576510152185e-06   3.6902576510152185e-06
-4.7714314936246955   9.352278232042955e-06   9.352278232042955e-06   9.352278232042955e-06   9.352278232042955e-06   9.352278232042955e-06   9.352278232042955e-06
-4.760524752681346   1.501429881307069e-05   1.501429881307069e-05   1.501429881307069e-05   1.501429881307069e-05   1.501429881307069e-05   1.501429881307069e-05
-4.749735686442412   2.067631939409842e-05   2.067631939409842e-05   2.067631939409842e-05   2.067631939409842e-05   2.067631939409842e-05   2.067631939409842e-05
-4.739061782762493   2.633833997512616e-05   2.633833997512616e-05   2.633833997512616e-05   2.633833997512616e-05   2.633833997512616e-05   2.633833997512616e-05
-4.728500609092067   3.2000360556153786e-05   3.2000360556153786e-05   3.2000360556153786e-05   3.2000360556153786e-05   3.2000360556153786e-05   3.2000360556153786e-05
-4.718049809150006   3.766238113718152e-05   3.766238113718152e-05   3.766238113718152e-05   3.766238113718152e-05   3.766238113718152e-05   3.766238113718152e-05
-4.707707099768171   4.3324401718209256e-05   4.3324401718209256e-05   4.3324401718209256e-05   4.3324401718209256e-05   4.3324401718209256e-05   4.3324401718209256e-05
-4.697470267897521   4.898642229923699e-05   4.898642229923699e-05   4.898642229923699e-05   4.898642229923699e-05   4.898642229923699e-05   4.898642229923699e-05
-4.687337167765924   5.464844288026472e-05   5.464844288026472e-05   5.464844288026472e-05   5.464844288026472e-05   5.464844288026472e-05   5.464844288026472e-05
-4.67730571817852   6.031046346129246e-05   6.031046346129246e-05   6.031046346129246e-05   6.031046346129246e-05   6.031046346129246e-05   6.031046346129246e-05
-4.667373899952153   7.29195571773161e-05   7.29195571773161e-05   7.29195571773161e-05   7.29195571773161e-05   7.29195571773161e-05   7.29195571773161e-05
-4.657539753475971   9.084528849665293e-05   9.084528849665293e-05   9.084528849665293e-05   9.084528849665293e-05   9.084528849665293e-05   9.084528849665293e-05
-4.647801376390789   0.00010877101981599012   0.00010877101981599012   0.00010877101981599012   0.00010877101981599012   0.00010877101981599012   0.00010877101981599012
-4.638156921380384   0.0001266967511353273   0.0001266967511353273   0.0001266967511353273   0.0001266967511353273   0.0001266967511353273   0.0001266967511353273
-4.6286045940682685   0.00014462248245466447   0.00014462248245466447   0.00014462248245466447   0.00014462248245466447   0.00014462248245466447   0.00014462248245466447
-4.619142651013985   0.00016254821377400164   0.00016254821377400164   0.00016254821377400164   0.00016254821377400164   0.00016254821377400164   0.00016254821377400164
-4.609769397803297   0.00018047394509333883   0.00018047394509333883   0.00018047394509333883   0.00018047394509333883   0.00018047394509333883   0.00018047394509333883
-4.600483187227068   0.00019839967641267602   0.00019839967641267602   0.00019839967641267602   0.00019839967641267602   0.00019839967641267602   0.00019839967641267602
-4.59128241754392   0.00021632540773201285   0.00021632540773201285   0.00021632540773201285   0.00021632540773201285   0.00021632540773201285   0.00021632540773201285
-4.582165530822082   0.00023425113905135004   0.00023425113905135004   0.00023425113905135004   0.00023425113905135004   0.00023425113905135004   0.00023425113905135004
-4.57313101135616   0.0002521768703706872   0.0002521768703706872   0.0002521768703706872   0.0002521768703706872   0.0002521768703706872   0.0002521768703706872
-4.564177384154768   0.0002701026016900244   0.0002701026016900244   0.0002701026016900244   0.0002701026016900244   0.0002701026016900244   0.0002701026016900244
-4.55530321349529   0.0002880283330093616   0.0002880283330093616   0.0002880283330093616   0.0002880283330093616   0.0002880283330093616   0.0002880283330093616
-4.546507101542183   0.00028888197218700066   0.00028888197218700066   0.00028888197218700066   0.00028888197218700066   0.00028888197218700066   0.00028888197218700066
-4.537787687025531   0.0002867160576525026   0.0002867160576525026   0.0002867160576525026   0.0002867160576525026   0.0002867160576525026   0.0002867160576525026
-4.529143643976723   0.0002845501431180045   0.0002845501431180045   0.0002845501431180045   0.0002845501431180045   0.0002845501431180045   0.0002845501431180045
-4.520573680518287   0.00028238422858350634   0.00028238422858350634   0.00028238422858350634   0.00028238422858350634   0.00028238422858350634   0.00028238422858350634
-4.51207653770516   0.0002802183140490083   0.0002802183140490083   0.0002802183140490083   0.0002802183140490083   0.0002802183140490083   0.0002802183140490083
-4.503650988414765   0.0002780523995145102   0.0002780523995145102   0.0002780523995145102   0.0002780523995145102   0.0002780523995145102   0.0002780523995145102
-4.495295836283456   0.0002758864849800121   0.0002758864849800121   0.0002758864849800121   0.0002758864849800121   0.0002758864849800121   0.0002758864849800121
-4.487009914687036   0.000273720570445514   0.000273720570445514   0.000273720570445514   0.000273720570445514   0.000273720570445514   0.000273720570445514
-4.4787920857631525   0.0002715546559110159   0.0002715546559110159   0.0002715546559110159   0.0002715546559110159   0.0002715546559110159   0.0002715546559110159
-4.470641239473548   0.0002693887413765178   0.0002693887413765178   0.0002693887413765178   0.0002693887413765178   0.0002693887413765178   0.0002693887413765178
-4.462556292704213   0.00026722282684201967   0.00026722282684201967   0.00026722282684201967   0.00026722282684201967   0.00026722282684201967   0.00026722282684201967
-4.454536188401624   0.00026505691230752163   0.00026505691230752163   0.00026505691230752163   0.00026505691230752163   0.00026505691230752163   0.00026505691230752163
-4.44657989474335   0.0002651384489223686   0.0002651384489223686   0.0002651384489223686   0.0002651384489223686   0.0002651384489223686   0.0002651384489223686
-4.438686404341388   0.0002798772756416418   0.0002798772756416418   0.0002798772756416418   0.0002798772756416418   0.0002798772756416418   0.0002798772756416418
-4.430854733476696   0.00029461610236091503   0.00029461610236091503   0.00029461610236091503   0.00029461610236091503   0.00029461610236091503   0.00029461610236091503
-4.423083921363473   0.0003093549290801883   0.0003093549290801883   0.0003093549290801883   0.0003093549290801883   0.0003093549290801883   0.0003093549290801883
-4.415373029441798   0.0003240937557994612   0.0003240937557994612   0.0003240937557994612   0.0003240937557994612   0.0003240937557994612   0.0003240937557994612
-4.407721140697341   0.00033883258251873476   0.00033883258251873476   0.00033883258251873476   0.00033883258251873476   0.00033883258251873476   0.00033883258251873476
-4.400127359006896   0.0003535714092380077   0.0003535714092380077   0.0003535714092380077   0.0003535714092380077   0.0003535714092380077   0.0003535714092380077
-4.392590808508583   0.0003683102359572812   0.0003683102359572812   0.0003683102359572812   0.0003683102359572812   0.0003683102359572812   0.0003683102359572812
-4.385110632995603   0.00038304906267655416   0.00038304906267655416   0.00038304906267655416   0.00038304906267655416   0.00038304906267655416   0.00038304906267655416
-4.377685995332498   0.0003977878893958274   0.0003977878893958274   0.0003977878893958274   0.0003977878893958274   0.0003977878893958274   0.0003977878893958274
-4.370316076892928   0.0004125267161151006   0.0004125267161151006   0.0004125267161151006   0.0004125267161151006   0.0004125267161151006   0.0004125267161151006
-4.363000077018007   0.00042726554283437383   0.00042726554283437383   0.00042726554283437383   0.00042726554283437383   0.00042726554283437383   0.00042726554283437383
-4.355737212494311   0.0004420043695536471   0.0004420043695536471   0.0004420043695536471   0.0004420043695536471   0.0004420043695536471   0.0004420043695536471
-4.348526717050713   0.0004539922223531394   0.0004539922223531394   0.0004539922223531394   0.0004539922223531394   0.0004539922223531394   0.0004539922223531394
-4.341367840873217   0.00046212107007071704   0.00046212107007071704   0.00046212107007071704   0.00046212107007071704   0.00046212107007071704   0.00046212107007071704
-4.334259850137049   0.00047024991778829437   0.00047024991778829437   0.00047024991778829437   0.00047024991778829437   0.00047024991778829437   0.00047024991778829437
-4.327202026555245   0.0004783787655058718   0.0004783787655058718   0.0004783787655058718   0.0004783787655058718   0.0004783787655058718   0.0004783787655058718
-4.32019366694307   0.0004865076132234493   0.0004865076132234493   0.0004865076132234493   0.0004865076132234493   0.0004865076132234493   0.0004865076132234493
-4.313234082797591   0.0004946364609410268   0.0004946364609410268   0.0004946364609410268   0.0004946364609410268   0.0004946364609410268   0.0004946364609410268
-4.306322599891774   0.0005027653086586042   0.0005027653086586042   0.0005027653086586042   0.0005027653086586042   0.0005027653086586042   0.0005027653086586042
-4.299458557882521   0.0005108941563761816   0.0005108941563761816   0.0005108941563761816   0.0005108941563761816   0.0005108941563761816   0.0005108941563761816
-4.29264130993206   0.0005190230040937592   0.0005190230040937592   0.0005190230040937592   0.0005190230040937592   0.0005190230040937592   0.0005190230040937592
-4.285870222342158   0.0005271518518113365   0.0005271518518113365   0.0005271518518113365   0.0005271518518113365   0.0005271518518113365   0.0005271518518113365
-4.279144674200631   0.0005352806995289139   0.0005352806995289139   0.0005352806995289139   0.0005352806995289139   0.0005352806995289139   0.0005352806995289139
-4.272464057039667   0.0005434095472464914   0.0005434095472464914   0.0005434095472464914   0.0005434095472464914   0.0005434095472464914   0.0005434095472464914
-4.265827774505481   0.0005572935581748286   0.0005572935581748286   0.0005572935581748286   0.0005572935581748286   0.0005572935581748286   0.0005572935581748286
-4.259235242038865   0.0005861649732978528   0.0005861649732978528   0.0005861649732978528   0.0005861649732978528   0.0005861649732978528   0.0005861649732978528
-4.252685886566191   0.0006150363884208765   0.0006150363884208765   0.0006150363884208765   0.0006150363884208765   0.0006150363884208765   0.0006150363884208765
-4.246179146200476   0.0006439078035439013   0.0006439078035439013   0.0006439078035439013   0.0006439078035439013   0.0006439078035439013   0.0006439078035439013
-4.239714469952108   0.000672779218666925   0.000672779218666925   0.000672779218666925   0.000672779218666925   0.000672779218666925   0.000672779218666925
-4.23329131744885   0.0007016506337899493   0.0007016506337899493   0.0007016506337899493   0.0007016506337899493   0.0007016506337899493   0.0007016506337899493
-4.226909158664802   0.0007305220489129735   0.0007305220489129735   0.0007305220489129735   0.0007305220489129735   0.0007305220489129735   0.0007305220489129735
-4.220567473657936   0.0007593934640359978   0.0007593934640359978   0.0007593934640359978   0.0007593934640359978   0.0007593934640359978   0.0007593934640359978
-4.214265752315913   0.0007882648791590221   0.0007882648791590221   0.0007882648791590221   0.0007882648791590221   0.0007882648791590221   0.0007882648791590221
-4.208003494109853   0.0008171362942820464   0.0008171362942820464   0.0008171362942820464   0.0008171362942820464   0.0008171362942820464   0.0008171362942820464
-4.201780207855775   0.0008460077094050707   0.0008460077094050707   0.0008460077094050707   0.0008460077094050707   0.0008460077094050707   0.0008460077094050707
-4.195595411483399   0.0008748791245280943   0.0008748791245280943   0.0008748791245280943   0.0008748791245280943   0.0008748791245280943   0.0008748791245280943
-4.189448631812076   0.0009037505396511185   0.0009037505396511185   0.0009037505396511185   0.0009037505396511185   0.0009037505396511185   0.0009037505396511185
-4.183339404333538   0.0009326219547741429   0.0009326219547741429   0.0009326219547741429   0.0009326219547741429   0.0009326219547741429   0.0009326219547741429
-4.177267273001266   0.0009614933698971672   0.0009614933698971672   0.0009614933698971672   0.0009614933698971672   0.0009614933698971672   0.0009614933698971672
-4.171231790026195   0.0009903647850201913   0.0009903647850201913   0.0009903647850201913   0.0009903647850201913   0.0009903647850201913   0.0009903647850201913
-4.165232515678569   0.0010192362001432156   0.0010192362001432156   0.0010192362001432156   0.0010192362001432156   0.0010192362001432156   0.0010192362001432156
-4.159269018095677   0.0010397322631083502   0.0010397322631083502   0.0010397322631083502   0.0010397322631083502   0.0010397322631083502   0.0010397322631083502
-4.153340873095315   0.0010523234993177234   0.0010523234993177234   0.0010523234993177234   0.0010523234993177234   0.0010523234993177234   0.0010523234993177234
-4.147447663994729   0.0010649147355270962   0.0010649147355270962   0.0010649147355270962   0.0010649147355270962   0.0010649147355270962   0.0010649147355270962
-4.141588981434863   0.001077505971736469   0.001077505971736469   0.001077505971736469   0.001077505971736469   0.001077505971736469   0.001077505971736469
-4.135764423209727   0.0010900972079458417   0.0010900972079458417   0.0010900972079458417   0.0010900972079458417   0.0010900972079458417   0.0010900972079458417
-4.129973594100712   0.0011026884441552149   0.0011026884441552149   0.0011026884441552149   0.0011026884441552149   0.0011026884441552149   0.0011026884441552149
-4.124216105715665   0.001115279680364588   0.001115279680364588   0.001115279680364588   0.001115279680364588   0.001115279680364588   0.001115279680364588
-4.118491576332576   0.0011278709165739606   0.0011278709165739606   0.0011278709165739606   0.0011278709165739606   0.0011278709165739606   0.0011278709165739606
-4.11279963074771   0.0011404621527833334   0.0011404621527833334   0.0011404621527833334   0.0011404621527833334   0.0011404621527833334   0.0011404621527833334
-4.107139900128039   0.0011530533889927061   0.0011530533889927061   0.0011530533889927061   0.0011530533889927061   0.0011530533889927061   0.0011530533889927061
-4.101512021867828   0.0011656446252020793   0.0011656446252020793   0.0011656446252020793   0.0011656446252020793   0.0011656446252020793   0.0011656446252020793
-4.095915639449232   0.0011782358614114525   0.0011782358614114525   0.0011782358614114525   0.0011782358614114525   0.0011782358614114525   0.0011782358614114525
-4.09035040230677   0.0011960068367491998   0.0011960068367491998   0.0011960068367491998   0.0011960068367491998   0.0011960068367491998   0.0011960068367491998
-4.084815965695556   0.0012285112922743265   0.0012285112922743265   0.0012285112922743265   0.0012285112922743265   0.0012285112922743265   0.0012285112922743265
-4.079311990563147   0.0012610157477994544   0.0012610157477994544   0.0012610157477994544   0.0012610157477994544   0.0012610157477994544   0.0012610157477994544
-4.073838143424906   0.0012935202033245825   0.0012935202033245825   0.0012935202033245825   0.0012935202033245825   0.0012935202033245825   0.0012935202033245825
-4.0683940962427565   0.0013260246588497092   0.0013260246588497092   0.0013260246588497092   0.0013260246588497092   0.0013260246588497092   0.0013260246588497092
-4.062979526307216   0.001358529114374836   0.001358529114374836   0.001358529114374836   0.001358529114374836   0.001358529114374836   0.001358529114374836
-4.057594116122608   0.0013910335698999628   0.0013910335698999628   0.0013910335698999628   0.0013910335698999628   0.0013910335698999628   0.0013910335698999628
-4.0522375532953525   0.0014235380254250907   0.0014235380254250907   0.0014235380254250907   0.0014235380254250907   0.0014235380254250907   0.0014235380254250907
-4.046909530425223   0.0014560424809502187   0.0014560424809502187   0.0014560424809502187   0.0014560424809502187   0.0014560424809502187   0.0014560424809502187
-4.041609744999494   0.0014885469364753455   0.0014885469364753455   0.0014885469364753455   0.0014885469364753455   0.0014885469364753455   0.0014885469364753455
-4.036337899289877   0.0015210513920004723   0.0015210513920004723   0.0015210513920004723   0.0015210513920004723   0.0015210513920004723   0.0015210513920004723
-4.031093700252151   0.0015535558475256001   0.0015535558475256001   0.0015535558475256001   0.0015535558475256001   0.0015535558475256001   0.0015535558475256001
-4.025876859428425   0.001586060303050727   0.001586060303050727   0.001586060303050727   0.001586060303050727   0.001586060303050727   0.001586060303050727
-4.020687092851925   0.0016177114376404891   0.0016177114376404891   0.0016177114376404891   0.0016177114376404891   0.0016177114376404891   0.0016177114376404891
-4.015524120954245   0.0016396712844643177   0.0016396712844643177   0.0016396712844643177   0.0016396712844643177   0.0016396712844643177   0.0016396712844643177
