# Neutrino-Ar40 nc cross section (10^-38 cm^2/GeV, natural abundance) # 
# log(energy in GeV)  nu_e      nu_mu      nu_tau      nu_e_bar      nu_mu_bar    nu_tau_bar # 

-4.964364732104951   -5.8464110065699e-07   -5.8464110065699e-07   -5.8464110065699e-07   -5.8464110065699e-07   -5.8464110065699e-07   -5.8464110065699e-07
-4.95115228823253   -9.379977819478568e-07   -9.379977819478568e-07   -9.379977819478568e-07   -9.379977819478568e-07   -9.379977819478568e-07   -9.379977819478568e-07
-4.938112139072703   -1.2913544632387205e-06   -1.2913544632387205e-06   -1.2913544632387205e-06   -1.2913544632387205e-06   -1.2913544632387205e-06   -1.2913544632387205e-06
-4.925239848845467   -1.6447111445295873e-06   -1.6447111445295873e-06   -1.6447111445295873e-06   -1.6447111445295873e-06   -1.6447111445295873e-06   -1.6447111445295873e-06
-4.9125311508967915   -1.9980678258204544e-06   -1.9980678258204544e-06   -1.9980678258204544e-06   -1.9980678258204544e-06   -1.9980678258204544e-06   -1.9980678258204544e-06
-4.8999819392085655   -2.3514245071113214e-06   -2.3514245071113214e-06   -2.3514245071113214e-06   -2.3514245071113214e-06   -2.3514245071113214e-06   -2.3514245071113214e-06
-4.887588260434701   -2.7047811884021847e-06   -2.7047811884021847e-06   -2.7047811884021847e-06   -2.7047811884021847e-06   -2.7047811884021847e-06   -2.7047811884021847e-06
-4.8753463064247295   -3.0581378696930517e-06   -3.0581378696930517e-06   -3.0581378696930517e-06   -3.0581378696930517e-06   -3.0581378696930517e-06   -3.0581378696930517e-06
-4.863252407199522   -3.4114945509839188e-06   -3.4114945509839188e-06   -3.4114945509839188e-06   -3.4114945509839188e-06   -3.4114945509839188e-06   -3.4114945509839188e-06
-4.851303024346722   -3.7648512322747854e-06   -3.7648512322747854e-06   -3.7648512322747854e-06   -3.7648512322747854e-06   -3.7648512322747854e-06   -3.7648512322747854e-06
-4.8394947448061325   -4.118207913565652e-06   -4.118207913565652e-06   -4.118207913565652e-06   -4.118207913565652e-06   -4.118207913565652e-06   -4.118207913565652e-06
-4.827824275017772   -4.471564594856513e-06   -4.471564594856513e-06   -4.471564594856513e-06   -4.471564594856513e-06   -4.471564594856513e-06   -4.471564594856513e-06
-4.81628843540748   -4.824921276147379e-06   -4.824921276147379e-06   -4.824921276147379e-06   -4.824921276147379e-06   -4.824921276147379e-06   -4.824921276147379e-06
-4.804884155186981   -4.196582558425268e-06   -4.196582558425268e-06   -4.196582558425268e-06   -4.196582558425268e-06   -4.196582558425268e-06   -4.196582558425268e-06
-4.7936084674471235   -1.0839534432005976e-06   -1.0839534432005976e-06   -1.0839534432005976e-06   -1.0839534432005976e-06   -1.0839534432005976e-06   -1.0839534432005976e-06
-4.782458504524696   2.028675672024073e-06   2.028675672024073e-06   2.028675672024073e-06   2.028675672024073e-06   2.028675672024073e-06   2.028675672024073e-06
-4.7714314936246955   5.141304787248745e-06   5.141304787248745e-06   5.141304787248745e-06   5.141304787248745e-06   5.141304787248745e-06   5.141304787248745e-06
-4.760524752681346   8.253933902473415e-06   8.253933902473415e-06   8.253933902473415e-06   8.253933902473415e-06   8.253933902473415e-06   8.253933902473415e-06
-4.749735686442412   1.1366563017698085e-05   1.1366563017698085e-05   1.1366563017698085e-05   1.1366563017698085e-05   1.1366563017698085e-05   1.1366563017698085e-05
-4.739061782762493   1.4479192132922756e-05   1.4479192132922756e-05   1.4479192132922756e-05   1.4479192132922756e-05   1.4479192132922756e-05   1.4479192132922756e-05
-4.728500609092067   1.759182124814737e-05   1.759182124814737e-05   1.759182124814737e-05   1.759182124814737e-05   1.759182124814737e-05   1.759182124814737e-05
-4.718049809150006   2.070445036337204e-05   2.070445036337204e-05   2.070445036337204e-05   2.070445036337204e-05   2.070445036337204e-05   2.070445036337204e-05
-4.707707099768171   2.381707947859671e-05   2.381707947859671e-05   2.381707947859671e-05   2.381707947859671e-05   2.381707947859671e-05   2.381707947859671e-05
-4.697470267897521   2.6929708593821385e-05   2.6929708593821385e-05   2.6929708593821385e-05   2.6929708593821385e-05   2.6929708593821385e-05   2.6929708593821385e-05
-4.687337167765924   3.0042337709046056e-05   3.0042337709046056e-05   3.0042337709046056e-05   3.0042337709046056e-05   3.0042337709046056e-05   3.0042337709046056e-05
-4.67730571817852   3.315496682427072e-05   3.315496682427072e-05   3.315496682427072e-05   3.315496682427072e-05   3.315496682427072e-05   3.315496682427072e-05
-4.667373899952153   3.560005622081919e-05   3.560005622081919e-05   3.560005622081919e-05   3.560005622081919e-05   3.560005622081919e-05   3.560005622081919e-05
-4.657539753475971   3.7534273383686826e-05   3.7534273383686826e-05   3.7534273383686826e-05   3.7534273383686826e-05   3.7534273383686826e-05   3.7534273383686826e-05
-4.647801376390789   3.94684905465545e-05   3.94684905465545e-05   3.94684905465545e-05   3.94684905465545e-05   3.94684905465545e-05   3.94684905465545e-05
-4.638156921380384   4.140270770942217e-05   4.140270770942217e-05   4.140270770942217e-05   4.140270770942217e-05   4.140270770942217e-05   4.140270770942217e-05
-4.6286045940682685   4.333692487228984e-05   4.333692487228984e-05   4.333692487228984e-05   4.333692487228984e-05   4.333692487228984e-05   4.333692487228984e-05
-4.619142651013985   4.527114203515751e-05   4.527114203515751e-05   4.527114203515751e-05   4.527114203515751e-05   4.527114203515751e-05   4.527114203515751e-05
-4.609769397803297   4.720535919802518e-05   4.720535919802518e-05   4.720535919802518e-05   4.720535919802518e-05   4.720535919802518e-05   4.720535919802518e-05
-4.600483187227068   4.913957636089285e-05   4.913957636089285e-05   4.913957636089285e-05   4.913957636089285e-05   4.913957636089285e-05   4.913957636089285e-05
-4.59128241754392   5.1073793523760485e-05   5.1073793523760485e-05   5.1073793523760485e-05   5.1073793523760485e-05   5.1073793523760485e-05   5.1073793523760485e-05
-4.582165530822082   5.3008010686628155e-05   5.3008010686628155e-05   5.3008010686628155e-05   5.3008010686628155e-05   5.3008010686628155e-05   5.3008010686628155e-05
-4.57313101135616   5.4942227849495825e-05   5.4942227849495825e-05   5.4942227849495825e-05   5.4942227849495825e-05   5.4942227849495825e-05   5.4942227849495825e-05
-4.564177384154768   5.6876445012363496e-05   5.6876445012363496e-05   5.6876445012363496e-05   5.6876445012363496e-05   5.6876445012363496e-05   5.6876445012363496e-05
-4.55530321349529   5.8810662175231166e-05   5.8810662175231166e-05   5.8810662175231166e-05   5.8810662175231166e-05   5.8810662175231166e-05   5.8810662175231166e-05
-4.546507101542183   5.872721603027118e-05   5.872721603027118e-05   5.872721603027118e-05   5.872721603027118e-05   5.872721603027118e-05   5.872721603027118e-05
-4.537787687025531   5.828690426623962e-05   5.828690426623962e-05   5.828690426623962e-05   5.828690426623962e-05   5.828690426623962e-05   5.828690426623962e-05
-4.529143643976723   5.784659250220807e-05   5.784659250220807e-05   5.784659250220807e-05   5.784659250220807e-05   5.784659250220807e-05   5.784659250220807e-05
-4.520573680518287   5.7406280738176506e-05   5.7406280738176506e-05   5.7406280738176506e-05   5.7406280738176506e-05   5.7406280738176506e-05   5.7406280738176506e-05
-4.51207653770516   5.6965968974144954e-05   5.6965968974144954e-05   5.6965968974144954e-05   5.6965968974144954e-05   5.6965968974144954e-05   5.6965968974144954e-05
-4.503650988414765   5.6525657210113396e-05   5.6525657210113396e-05   5.6525657210113396e-05   5.6525657210113396e-05   5.6525657210113396e-05   5.6525657210113396e-05
-4.495295836283456   5.608534544608184e-05   5.608534544608184e-05   5.608534544608184e-05   5.608534544608184e-05   5.608534544608184e-05   5.608534544608184e-05
-4.487009914687036   5.564503368205028e-05   5.564503368205028e-05   5.564503368205028e-05   5.564503368205028e-05   5.564503368205028e-05   5.564503368205028e-05
-4.4787920857631525   5.520472191801872e-05   5.520472191801872e-05   5.520472191801872e-05   5.520472191801872e-05   5.520472191801872e-05   5.520472191801872e-05
-4.470641239473548   5.476441015398717e-05   5.476441015398717e-05   5.476441015398717e-05   5.476441015398717e-05   5.476441015398717e-05   5.476441015398717e-05
-4.462556292704213   5.4324098389955604e-05   5.4324098389955604e-05   5.4324098389955604e-05   5.4324098389955604e-05   5.4324098389955604e-05   5.4324098389955604e-05
-4.454536188401624   5.388378662592405e-05   5.388378662592405e-05   5.388378662592405e-05   5.388378662592405e-05   5.388378662592405e-05   5.388378662592405e-05
-4.44657989474335   5.390036231722886e-05   5.390036231722886e-05   5.390036231722886e-05   5.390036231722886e-05   5.390036231722886e-05   5.390036231722886e-05
-4.438686404341388   5.6896638804205996e-05   5.6896638804205996e-05   5.6896638804205996e-05   5.6896638804205996e-05   5.6896638804205996e-05   5.6896638804205996e-05
-4.430854733476696   5.9892915291183125e-05   5.9892915291183125e-05   5.9892915291183125e-05   5.9892915291183125e-05   5.9892915291183125e-05   5.9892915291183125e-05
-4.423083921363473   6.288919177816026e-05   6.288919177816026e-05   6.288919177816026e-05   6.288919177816026e-05   6.288919177816026e-05   6.288919177816026e-05
-4.415373029441798   6.588546826513734e-05   6.588546826513734e-05   6.588546826513734e-05   6.588546826513734e-05   6.588546826513734e-05   6.588546826513734e-05
-4.407721140697341   6.888174475211453e-05   6.888174475211453e-05   6.888174475211453e-05   6.888174475211453e-05   6.888174475211453e-05   6.888174475211453e-05
-4.400127359006896   7.187802123909161e-05   7.187802123909161e-05   7.187802123909161e-05   7.187802123909161e-05   7.187802123909161e-05   7.187802123909161e-05
-4.392590808508583   7.487429772606879e-05   7.487429772606879e-05   7.487429772606879e-05   7.487429772606879e-05   7.487429772606879e-05   7.487429772606879e-05
-4.385110632995603   7.787057421304587e-05   7.787057421304587e-05   7.787057421304587e-05   7.787057421304587e-05   7.787057421304587e-05   7.787057421304587e-05
-4.377685995332498   8.0866850700023e-05   8.0866850700023e-05   8.0866850700023e-05   8.0866850700023e-05   8.0866850700023e-05   8.0866850700023e-05
-4.370316076892928   8.386312718700014e-05   8.386312718700014e-05   8.386312718700014e-05   8.386312718700014e-05   8.386312718700014e-05   8.386312718700014e-05
-4.363000077018007   8.685940367397728e-05   8.685940367397728e-05   8.685940367397728e-05   8.685940367397728e-05   8.685940367397728e-05   8.685940367397728e-05
-4.355737212494311   8.985568016095441e-05   8.985568016095441e-05   8.985568016095441e-05   8.985568016095441e-05   8.985568016095441e-05   8.985568016095441e-05
-4.348526717050713   9.229270735155789e-05   9.229270735155789e-05   9.229270735155789e-05   9.229270735155789e-05   9.229270735155789e-05   9.229270735155789e-05
-4.341367840873217   9.394523205697057e-05   9.394523205697057e-05   9.394523205697057e-05   9.394523205697057e-05   9.394523205697057e-05   9.394523205697057e-05
-4.334259850137049   9.559775676238319e-05   9.559775676238319e-05   9.559775676238319e-05   9.559775676238319e-05   9.559775676238319e-05   9.559775676238319e-05
-4.327202026555245   9.725028146779584e-05   9.725028146779584e-05   9.725028146779584e-05   9.725028146779584e-05   9.725028146779584e-05   9.725028146779584e-05
-4.32019366694307   9.890280617320848e-05   9.890280617320848e-05   9.890280617320848e-05   9.890280617320848e-05   9.890280617320848e-05   9.890280617320848e-05
-4.313234082797591   0.00010055533087862113   0.00010055533087862113   0.00010055533087862113   0.00010055533087862113   0.00010055533087862113   0.00010055533087862113
-4.306322599891774   0.00010220785558403379   0.00010220785558403379   0.00010220785558403379   0.00010220785558403379   0.00010220785558403379   0.00010220785558403379
-4.299458557882521   0.0001038603802894464   0.0001038603802894464   0.0001038603802894464   0.0001038603802894464   0.0001038603802894464   0.0001038603802894464
-4.29264130993206   0.00010551290499485908   0.00010551290499485908   0.00010551290499485908   0.00010551290499485908   0.00010551290499485908   0.00010551290499485908
-4.285870222342158   0.0001071654297002717   0.0001071654297002717   0.0001071654297002717   0.0001071654297002717   0.0001071654297002717   0.0001071654297002717
-4.279144674200631   0.00010881795440568435   0.00010881795440568435   0.00010881795440568435   0.00010881795440568435   0.00010881795440568435   0.00010881795440568435
-4.272464057039667   0.000110470479111097   0.000110470479111097   0.000110470479111097   0.000110470479111097   0.000110470479111097   0.000110470479111097
-4.265827774505481   0.00011329297891259825   0.00011329297891259825   0.00011329297891259825   0.00011329297891259825   0.00011329297891259825   0.00011329297891259825
-4.259235242038865   0.00011916228886016369   0.00011916228886016369   0.00011916228886016369   0.00011916228886016369   0.00011916228886016369   0.00011916228886016369
-4.252685886566191   0.00012503159880772902   0.00012503159880772902   0.00012503159880772902   0.00012503159880772902   0.00012503159880772902   0.00012503159880772902
-4.246179146200476   0.00013090090875529455   0.00013090090875529455   0.00013090090875529455   0.00013090090875529455   0.00013090090875529455   0.00013090090875529455
-4.239714469952108   0.0001367702187028599   0.0001367702187028599   0.0001367702187028599   0.0001367702187028599   0.0001367702187028599   0.0001367702187028599
-4.23329131744885   0.00014263952865042532   0.00014263952865042532   0.00014263952865042532   0.00014263952865042532   0.00014263952865042532   0.00014263952865042532
-4.226909158664802   0.00014850883859799077   0.00014850883859799077   0.00014850883859799077   0.00014850883859799077   0.00014850883859799077   0.00014850883859799077
-4.220567473657936   0.0001543781485455562   0.0001543781485455562   0.0001543781485455562   0.0001543781485455562   0.0001543781485455562   0.0001543781485455562
-4.214265752315913   0.00016024745849312164   0.00016024745849312164   0.00016024745849312164   0.00016024745849312164   0.00016024745849312164   0.00016024745849312164
-4.208003494109853   0.00016611676844068707   0.00016611676844068707   0.00016611676844068707   0.00016611676844068707   0.00016611676844068707   0.00016611676844068707
-4.201780207855775   0.0001719860783882525   0.0001719860783882525   0.0001719860783882525   0.0001719860783882525   0.0001719860783882525   0.0001719860783882525
-4.195595411483399   0.00017785538833581783   0.00017785538833581783   0.00017785538833581783   0.00017785538833581783   0.00017785538833581783   0.00017785538833581783
-4.189448631812076   0.00018372469828338328   0.00018372469828338328   0.00018372469828338328   0.00018372469828338328   0.00018372469828338328   0.00018372469828338328
-4.183339404333538   0.0001895940082309487   0.0001895940082309487   0.0001895940082309487   0.0001895940082309487   0.0001895940082309487   0.0001895940082309487
-4.177267273001266   0.00019546331817851413   0.00019546331817851413   0.00019546331817851413   0.00019546331817851413   0.00019546331817851413   0.00019546331817851413
-4.171231790026195   0.00020133262812607955   0.00020133262812607955   0.00020133262812607955   0.00020133262812607955   0.00020133262812607955   0.00020133262812607955
-4.165232515678569   0.000207201938073645   0.000207201938073645   0.000207201938073645   0.000207201938073645   0.000207201938073645   0.000207201938073645
-4.159269018095677   0.0002113686110868863   0.0002113686110868863   0.0002113686110868863   0.0002113686110868863   0.0002113686110868863   0.0002113686110868863
-4.153340873095315   0.00021392830092615867   0.00021392830092615867   0.00021392830092615867   0.00021392830092615867   0.00021392830092615867   0.00021392830092615867
-4.147447663994729   0.00021648799076543098   0.00021648799076543098   0.00021648799076543098   0.00021648799076543098   0.00021648799076543098   0.00021648799076543098
-4.141588981434863   0.00021904768060470326   0.00021904768060470326   0.00021904768060470326   0.00021904768060470326   0.00021904768060470326   0.00021904768060470326
-4.135764423209727   0.00022160737044397554   0.00022160737044397554   0.00022160737044397554   0.00022160737044397554   0.00022160737044397554   0.00022160737044397554
-4.129973594100712   0.0002241670602832479   0.0002241670602832479   0.0002241670602832479   0.0002241670602832479   0.0002241670602832479   0.0002241670602832479
-4.124216105715665   0.0002267267501225203   0.0002267267501225203   0.0002267267501225203   0.0002267267501225203   0.0002267267501225203   0.0002267267501225203
-4.118491576332576   0.00022928643996179257   0.00022928643996179257   0.00022928643996179257   0.00022928643996179257   0.00022928643996179257   0.00022928643996179257
-4.11279963074771   0.00023184612980106485   0.00023184612980106485   0.00023184612980106485   0.00023184612980106485   0.00023184612980106485   0.00023184612980106485
-4.107139900128039   0.00023440581964033713   0.00023440581964033713   0.00023440581964033713   0.00023440581964033713   0.00023440581964033713   0.00023440581964033713
-4.101512021867828   0.00023696550947960952   0.00023696550947960952   0.00023696550947960952   0.00023696550947960952   0.00023696550947960952   0.00023696550947960952
-4.095915639449232   0.00023952519931888188   0.00023952519931888188   0.00023952519931888188   0.00023952519931888188   0.00023952519931888188   0.00023952519931888188
-4.09035040230677   0.00024313788549596506   0.00024313788549596506   0.00024313788549596506   0.00024313788549596506   0.00024313788549596506   0.00024313788549596506
-4.084815965695556   0.0002497457612561554   0.0002497457612561554   0.0002497457612561554   0.0002497457612561554   0.0002497457612561554   0.0002497457612561554
-4.079311990563147   0.000256353637016346   0.000256353637016346   0.000256353637016346   0.000256353637016346   0.000256353637016346   0.000256353637016346
-4.073838143424906   0.0002629615127765366   0.0002629615127765366   0.0002629615127765366   0.0002629615127765366   0.0002629615127765366   0.0002629615127765366
-4.0683940962427565   0.00026956938853672693   0.00026956938853672693   0.00026956938853672693   0.00026956938853672693   0.00026956938853672693   0.00026956938853672693
-4.062979526307216   0.00027617726429691726   0.00027617726429691726   0.00027617726429691726   0.00027617726429691726   0.00027617726429691726   0.00027617726429691726
-4.057594116122608   0.0002827851400571076   0.0002827851400571076   0.0002827851400571076   0.0002827851400571076   0.0002827851400571076   0.0002827851400571076
-4.0522375532953525   0.0002893930158172982   0.0002893930158172982   0.0002893930158172982   0.0002893930158172982   0.0002893930158172982   0.0002893930158172982
-4.046909530425223   0.0002960008915774888   0.0002960008915774888   0.0002960008915774888   0.0002960008915774888   0.0002960008915774888   0.0002960008915774888
-4.041609744999494   0.00030260876733767913   0.00030260876733767913   0.00030260876733767913   0.00030260876733767913   0.00030260876733767913   0.00030260876733767913
-4.036337899289877   0.00030921664309786946   0.00030921664309786946   0.00030921664309786946   0.00030921664309786946   0.00030921664309786946   0.00030921664309786946
-4.031093700252151   0.00031582451885806006   0.00031582451885806006   0.00031582451885806006   0.00031582451885806006   0.00031582451885806006   0.00031582451885806006
-4.025876859428425   0.0003224323946182504   0.0003224323946182504   0.0003224323946182504   0.0003224323946182504   0.0003224323946182504   0.0003224323946182504
-4.020687092851925   0.00032886679758422336   0.00032886679758422336   0.00032886679758422336   0.00032886679758422336   0.00032886679758422336   0.00032886679758422336
