# Neutrino-Ar40 nc cross section (10^-38 cm^2/GeV, natural abundance) # 
# log(energy in GeV)  nu_e      nu_mu      nu_tau      nu_e_bar      nu_mu_bar    nu_tau_bar # 

-4.964364732104951   -1.2806424109629306e-07   -1.2806424109629306e-07   -1.2806424109629306e-07   -1.2806424109629306e-07   -1.2806424109629306e-07   -1.2806424109629306e-07
-4.95115228823253   -2.054661808076258e-07   -2.054661808076258e-07   -2.054661808076258e-07   -2.054661808076258e-07   -2.054661808076258e-07   -2.054661808076258e-07
-4.938112139072703   -2.8286812051895787e-07   -2.8286812051895787e-07   -2.8286812051895787e-07   -2.8286812051895787e-07   -2.8286812051895787e-07   -2.8286812051895787e-07
-4.925239848845467   -3.6027006023029057e-07   -3.6027006023029057e-07   -3.6027006023029057e-07   -3.6027006023029057e-07   -3.6027006023029057e-07   -3.6027006023029057e-07
-4.9125311508967915   -4.376719999416233e-07   -4.376719999416233e-07   -4.376719999416233e-07   -4.376719999416233e-07   -4.376719999416233e-07   -4.376719999416233e-07
-4.8999819392085655   -5.150739396529561e-07   -5.150739396529561e-07   -5.150739396529561e-07   -5.150739396529561e-07   -5.150739396529561e-07   -5.150739396529561e-07
-4.887588260434701   -5.92475879364288e-07   -5.92475879364288e-07   -5.92475879364288e-07   -5.92475879364288e-07   -5.92475879364288e-07   -5.92475879364288e-07
-4.8753463064247295   -6.698778190756208e-07   -6.698778190756208e-07   -6.698778190756208e-07   -6.698778190756208e-07   -6.698778190756208e-07   -6.698778190756208e-07
-4.863252407199522   -7.472797587869536e-07   -7.472797587869536e-07   -7.472797587869536e-07   -7.472797587869536e-07   -7.472797587869536e-07   -7.472797587869536e-07
-4.851303024346722   -8.246816984982864e-07   -8.246816984982864e-07   -8.246816984982864e-07   -8.246816984982864e-07   -8.246816984982864e-07   -8.246816984982864e-07
-4.8394947448061325   -9.02083638209619e-07   -9.02083638209619e-07   -9.02083638209619e-07   -9.02083638209619e-07   -9.02083638209619e-07   -9.02083638209619e-07
-4.827824275017772   -9.794855779209503e-07   -9.794855779209503e-07   -9.794855779209503e-07   -9.794855779209503e-07   -9.794855779209503e-07   -9.794855779209503e-07
-4.81628843540748   -1.0568875176322831e-06   -1.0568875176322831e-06   -1.0568875176322831e-06   -1.0568875176322831e-06   -1.0568875176322831e-06   -1.0568875176322831e-06
-4.804884155186981   -9.192514175598207e-07   -9.192514175598207e-07   -9.192514175598207e-07   -9.192514175598207e-07   -9.192514175598207e-07   -9.192514175598207e-07
-4.7936084674471235   -2.374374208915594e-07   -2.374374208915594e-07   -2.374374208915594e-07   -2.374374208915594e-07   -2.374374208915594e-07   -2.374374208915594e-07
-4.782458504524696   4.4437657577670187e-07   4.4437657577670187e-07   4.4437657577670187e-07   4.4437657577670187e-07   4.4437657577670187e-07   4.4437657577670187e-07
-4.7714314936246955   1.1261905724449631e-06   1.1261905724449631e-06   1.1261905724449631e-06   1.1261905724449631e-06   1.1261905724449631e-06   1.1261905724449631e-06
-4.760524752681346   1.8080045691132242e-06   1.8080045691132242e-06   1.8080045691132242e-06   1.8080045691132242e-06   1.8080045691132242e-06   1.8080045691132242e-06
-4.749735686442412   2.489818565781485e-06   2.489818565781485e-06   2.489818565781485e-06   2.489818565781485e-06   2.489818565781485e-06   2.489818565781485e-06
-4.739061782762493   3.171632562449746e-06   3.171632562449746e-06   3.171632562449746e-06   3.171632562449746e-06   3.171632562449746e-06   3.171632562449746e-06
-4.728500609092067   3.853446559117995e-06   3.853446559117995e-06   3.853446559117995e-06   3.853446559117995e-06   3.853446559117995e-06   3.853446559117995e-06
-4.718049809150006   4.535260555786256e-06   4.535260555786256e-06   4.535260555786256e-06   4.535260555786256e-06   4.535260555786256e-06   4.535260555786256e-06
-4.707707099768171   5.2170745524545175e-06   5.2170745524545175e-06   5.2170745524545175e-06   5.2170745524545175e-06   5.2170745524545175e-06   5.2170745524545175e-06
-4.697470267897521   5.8988885491227785e-06   5.8988885491227785e-06   5.8988885491227785e-06   5.8988885491227785e-06   5.8988885491227785e-06   5.8988885491227785e-06
-4.687337167765924   6.58070254579104e-06   6.58070254579104e-06   6.58070254579104e-06   6.58070254579104e-06   6.58070254579104e-06   6.58070254579104e-06
-4.67730571817852   7.262516542459301e-06   7.262516542459301e-06   7.262516542459301e-06   7.262516542459301e-06   7.262516542459301e-06   7.262516542459301e-06
-4.667373899952153   7.798107553131823e-06   7.798107553131823e-06   7.798107553131823e-06   7.798107553131823e-06   7.798107553131823e-06   7.798107553131823e-06
-4.657539753475971   8.22179321737902e-06   8.22179321737902e-06   8.22179321737902e-06   8.22179321737902e-06   8.22179321737902e-06   8.22179321737902e-06
-4.647801376390789   8.645478881626224e-06   8.645478881626224e-06   8.645478881626224e-06   8.645478881626224e-06   8.645478881626224e-06   8.645478881626224e-06
-4.638156921380384   9.069164545873428e-06   9.069164545873428e-06   9.069164545873428e-06   9.069164545873428e-06   9.069164545873428e-06   9.069164545873428e-06
-4.6286045940682685   9.492850210120633e-06   9.492850210120633e-06   9.492850210120633e-06   9.492850210120633e-06   9.492850210120633e-06   9.492850210120633e-06
-4.619142651013985   9.916535874367837e-06   9.916535874367837e-06   9.916535874367837e-06   9.916535874367837e-06   9.916535874367837e-06   9.916535874367837e-06
-4.609769397803297   1.0340221538615041e-05   1.0340221538615041e-05   1.0340221538615041e-05   1.0340221538615041e-05   1.0340221538615041e-05   1.0340221538615041e-05
-4.600483187227068   1.0763907202862246e-05   1.0763907202862246e-05   1.0763907202862246e-05   1.0763907202862246e-05   1.0763907202862246e-05   1.0763907202862246e-05
-4.59128241754392   1.1187592867109442e-05   1.1187592867109442e-05   1.1187592867109442e-05   1.1187592867109442e-05   1.1187592867109442e-05   1.1187592867109442e-05
-4.582165530822082   1.1611278531356646e-05   1.1611278531356646e-05   1.1611278531356646e-05   1.1611278531356646e-05   1.1611278531356646e-05   1.1611278531356646e-05
-4.57313101135616   1.2034964195603849e-05   1.2034964195603849e-05   1.2034964195603849e-05   1.2034964195603849e-05   1.2034964195603849e-05   1.2034964195603849e-05
-4.564177384154768   1.2458649859851053e-05   1.2458649859851053e-05   1.2458649859851053e-05   1.2458649859851053e-05   1.2458649859851053e-05   1.2458649859851053e-05
-4.55530321349529   1.2882335524098258e-05   1.2882335524098258e-05   1.2882335524098258e-05   1.2882335524098258e-05   1.2882335524098258e-05   1.2882335524098258e-05
-4.546507101542183   1.286405684472607e-05   1.286405684472607e-05   1.286405684472607e-05   1.286405684472607e-05   1.286405684472607e-05   1.286405684472607e-05
-4.537787687025531   1.27676076011763e-05   1.27676076011763e-05   1.27676076011763e-05   1.27676076011763e-05   1.27676076011763e-05   1.27676076011763e-05
-4.529143643976723   1.2671158357626533e-05   1.2671158357626533e-05   1.2671158357626533e-05   1.2671158357626533e-05   1.2671158357626533e-05   1.2671158357626533e-05
-4.520573680518287   1.257470911407676e-05   1.257470911407676e-05   1.257470911407676e-05   1.257470911407676e-05   1.257470911407676e-05   1.257470911407676e-05
-4.51207653770516   1.2478259870526992e-05   1.2478259870526992e-05   1.2478259870526992e-05   1.2478259870526992e-05   1.2478259870526992e-05   1.2478259870526992e-05
-4.503650988414765   1.2381810626977221e-05   1.2381810626977221e-05   1.2381810626977221e-05   1.2381810626977221e-05   1.2381810626977221e-05   1.2381810626977221e-05
-4.495295836283456   1.228536138342745e-05   1.228536138342745e-05   1.228536138342745e-05   1.228536138342745e-05   1.228536138342745e-05   1.228536138342745e-05
-4.487009914687036   1.218891213987768e-05   1.218891213987768e-05   1.218891213987768e-05   1.218891213987768e-05   1.218891213987768e-05   1.218891213987768e-05
-4.4787920857631525   1.2092462896327911e-05   1.2092462896327911e-05   1.2092462896327911e-05   1.2092462896327911e-05   1.2092462896327911e-05   1.2092462896327911e-05
-4.470641239473548   1.1996013652778142e-05   1.1996013652778142e-05   1.1996013652778142e-05   1.1996013652778142e-05   1.1996013652778142e-05   1.1996013652778142e-05
-4.462556292704213   1.189956440922837e-05   1.189956440922837e-05   1.189956440922837e-05   1.189956440922837e-05   1.189956440922837e-05   1.189956440922837e-05
-4.454536188401624   1.18031151656786e-05   1.18031151656786e-05   1.18031151656786e-05   1.18031151656786e-05   1.18031151656786e-05   1.18031151656786e-05
-4.44657989474335   1.1806746031392988e-05   1.1806746031392988e-05   1.1806746031392988e-05   1.1806746031392988e-05   1.1806746031392988e-05   1.1806746031392988e-05
-4.438686404341388   1.2463073261873694e-05   1.2463073261873694e-05   1.2463073261873694e-05   1.2463073261873694e-05   1.2463073261873694e-05   1.2463073261873694e-05
-4.430854733476696   1.31194004923544e-05   1.31194004923544e-05   1.31194004923544e-05   1.31194004923544e-05   1.31194004923544e-05   1.31194004923544e-05
-4.423083921363473   1.3775727722835105e-05   1.3775727722835105e-05   1.3775727722835105e-05   1.3775727722835105e-05   1.3775727722835105e-05   1.3775727722835105e-05
-4.415373029441798   1.4432054953315797e-05   1.4432054953315797e-05   1.4432054953315797e-05   1.4432054953315797e-05   1.4432054953315797e-05   1.4432054953315797e-05
-4.407721140697341   1.5088382183796516e-05   1.5088382183796516e-05   1.5088382183796516e-05   1.5088382183796516e-05   1.5088382183796516e-05   1.5088382183796516e-05
-4.400127359006896   1.5744709414277207e-05   1.5744709414277207e-05   1.5744709414277207e-05   1.5744709414277207e-05   1.5744709414277207e-05   1.5744709414277207e-05
-4.392590808508583   1.6401036644757928e-05   1.6401036644757928e-05   1.6401036644757928e-05   1.6401036644757928e-05   1.6401036644757928e-05   1.6401036644757928e-05
-4.385110632995603   1.705736387523862e-05   1.705736387523862e-05   1.705736387523862e-05   1.705736387523862e-05   1.705736387523862e-05   1.705736387523862e-05
-4.377685995332498   1.7713691105719326e-05   1.7713691105719326e-05   1.7713691105719326e-05   1.7713691105719326e-05   1.7713691105719326e-05   1.7713691105719326e-05
-4.370316076892928   1.837001833620003e-05   1.837001833620003e-05   1.837001833620003e-05   1.837001833620003e-05   1.837001833620003e-05   1.837001833620003e-05
-4.363000077018007   1.9026345566680736e-05   1.9026345566680736e-05   1.9026345566680736e-05   1.9026345566680736e-05   1.9026345566680736e-05   1.9026345566680736e-05
-4.355737212494311   1.968267279716144e-05   1.968267279716144e-05   1.968267279716144e-05   1.968267279716144e-05   1.968267279716144e-05   1.968267279716144e-05
-4.348526717050713   2.021649780081744e-05   2.021649780081744e-05   2.021649780081744e-05   2.021649780081744e-05   2.021649780081744e-05   2.021649780081744e-05
-4.341367840873217   2.0578479402955456e-05   2.0578479402955456e-05   2.0578479402955456e-05   2.0578479402955456e-05   2.0578479402955456e-05   2.0578479402955456e-05
-4.334259850137049   2.094046100509346e-05   2.094046100509346e-05   2.094046100509346e-05   2.094046100509346e-05   2.094046100509346e-05   2.094046100509346e-05
-4.327202026555245   2.130244260723147e-05   2.130244260723147e-05   2.130244260723147e-05   2.130244260723147e-05   2.130244260723147e-05   2.130244260723147e-05
-4.32019366694307   2.1664424209369476e-05   2.1664424209369476e-05   2.1664424209369476e-05   2.1664424209369476e-05   2.1664424209369476e-05   2.1664424209369476e-05
-4.313234082797591   2.2026405811507488e-05   2.2026405811507488e-05   2.2026405811507488e-05   2.2026405811507488e-05   2.2026405811507488e-05   2.2026405811507488e-05
-4.306322599891774   2.2388387413645496e-05   2.2388387413645496e-05   2.2388387413645496e-05   2.2388387413645496e-05   2.2388387413645496e-05   2.2388387413645496e-05
-4.299458557882521   2.27503690157835e-05   2.27503690157835e-05   2.27503690157835e-05   2.27503690157835e-05   2.27503690157835e-05   2.27503690157835e-05
-4.29264130993206   2.3112350617921515e-05   2.3112350617921515e-05   2.3112350617921515e-05   2.3112350617921515e-05   2.3112350617921515e-05   2.3112350617921515e-05
-4.285870222342158   2.347433222005952e-05   2.347433222005952e-05   2.347433222005952e-05   2.347433222005952e-05   2.347433222005952e-05   2.347433222005952e-05
-4.279144674200631   2.3836313822197528e-05   2.3836313822197528e-05   2.3836313822197528e-05   2.3836313822197528e-05   2.3836313822197528e-05   2.3836313822197528e-05
-4.272464057039667   2.4198295424335536e-05   2.4198295424335536e-05   2.4198295424335536e-05   2.4198295424335536e-05   2.4198295424335536e-05   2.4198295424335536e-05
-4.265827774505481   2.4816557285616763e-05   2.4816557285616763e-05   2.4816557285616763e-05   2.4816557285616763e-05   2.4816557285616763e-05   2.4816557285616763e-05
-4.259235242038865   2.6102215655083477e-05   2.6102215655083477e-05   2.6102215655083477e-05   2.6102215655083477e-05   2.6102215655083477e-05   2.6102215655083477e-05
-4.252685886566191   2.7387874024550167e-05   2.7387874024550167e-05   2.7387874024550167e-05   2.7387874024550167e-05   2.7387874024550167e-05   2.7387874024550167e-05
-4.246179146200476   2.8673532394016908e-05   2.8673532394016908e-05   2.8673532394016908e-05   2.8673532394016908e-05   2.8673532394016908e-05   2.8673532394016908e-05
-4.239714469952108   2.9959190763483598e-05   2.9959190763483598e-05   2.9959190763483598e-05   2.9959190763483598e-05   2.9959190763483598e-05   2.9959190763483598e-05
-4.23329131744885   3.1244849132950315e-05   3.1244849132950315e-05   3.1244849132950315e-05   3.1244849132950315e-05   3.1244849132950315e-05   3.1244849132950315e-05
-4.226909158664802   3.2530507502417026e-05   3.2530507502417026e-05   3.2530507502417026e-05   3.2530507502417026e-05   3.2530507502417026e-05   3.2530507502417026e-05
-4.220567473657936   3.381616587188374e-05   3.381616587188374e-05   3.381616587188374e-05   3.381616587188374e-05   3.381616587188374e-05   3.381616587188374e-05
-4.214265752315913   3.510182424135045e-05   3.510182424135045e-05   3.510182424135045e-05   3.510182424135045e-05   3.510182424135045e-05   3.510182424135045e-05
-4.208003494109853   3.638748261081717e-05   3.638748261081717e-05   3.638748261081717e-05   3.638748261081717e-05   3.638748261081717e-05   3.638748261081717e-05
-4.201780207855775   3.767314098028389e-05   3.767314098028389e-05   3.767314098028389e-05   3.767314098028389e-05   3.767314098028389e-05   3.767314098028389e-05
-4.195595411483399   3.895879934975058e-05   3.895879934975058e-05   3.895879934975058e-05   3.895879934975058e-05   3.895879934975058e-05   3.895879934975058e-05
-4.189448631812076   4.024445771921729e-05   4.024445771921729e-05   4.024445771921729e-05   4.024445771921729e-05   4.024445771921729e-05   4.024445771921729e-05
-4.183339404333538   4.1530116088684005e-05   4.1530116088684005e-05   4.1530116088684005e-05   4.1530116088684005e-05   4.1530116088684005e-05   4.1530116088684005e-05
-4.177267273001266   4.2815774458150716e-05   4.2815774458150716e-05   4.2815774458150716e-05   4.2815774458150716e-05   4.2815774458150716e-05   4.2815774458150716e-05
-4.171231790026195   4.410143282761743e-05   4.410143282761743e-05   4.410143282761743e-05   4.410143282761743e-05   4.410143282761743e-05   4.410143282761743e-05
-4.165232515678569   4.538709119708415e-05   4.538709119708415e-05   4.538709119708415e-05   4.538709119708415e-05   4.538709119708415e-05   4.538709119708415e-05
-4.159269018095677   4.629979099998462e-05   4.629979099998462e-05   4.629979099998462e-05   4.629979099998462e-05   4.629979099998462e-05   4.629979099998462e-05
-4.153340873095315   4.686048496477762e-05   4.686048496477762e-05   4.686048496477762e-05   4.686048496477762e-05   4.686048496477762e-05   4.686048496477762e-05
-4.147447663994729   4.7421178929570595e-05   4.7421178929570595e-05   4.7421178929570595e-05   4.7421178929570595e-05   4.7421178929570595e-05   4.7421178929570595e-05
-4.141588981434863   4.7981872894363575e-05   4.7981872894363575e-05   4.7981872894363575e-05   4.7981872894363575e-05   4.7981872894363575e-05   4.7981872894363575e-05
-4.135764423209727   4.854256685915655e-05   4.854256685915655e-05   4.854256685915655e-05   4.854256685915655e-05   4.854256685915655e-05   4.854256685915655e-05
-4.129973594100712   4.910326082394955e-05   4.910326082394955e-05   4.910326082394955e-05   4.910326082394955e-05   4.910326082394955e-05   4.910326082394955e-05
-4.124216105715665   4.9663954788742544e-05   4.9663954788742544e-05   4.9663954788742544e-05   4.9663954788742544e-05   4.9663954788742544e-05   4.9663954788742544e-05
-4.118491576332576   5.0224648753535524e-05   5.0224648753535524e-05   5.0224648753535524e-05   5.0224648753535524e-05   5.0224648753535524e-05   5.0224648753535524e-05
-4.11279963074771   5.07853427183285e-05   5.07853427183285e-05   5.07853427183285e-05   5.07853427183285e-05   5.07853427183285e-05   5.07853427183285e-05
-4.107139900128039   5.134603668312148e-05   5.134603668312148e-05   5.134603668312148e-05   5.134603668312148e-05   5.134603668312148e-05   5.134603668312148e-05
-4.101512021867828   5.190673064791447e-05   5.190673064791447e-05   5.190673064791447e-05   5.190673064791447e-05   5.190673064791447e-05   5.190673064791447e-05
-4.095915639449232   5.246742461270747e-05   5.246742461270747e-05   5.246742461270747e-05   5.246742461270747e-05   5.246742461270747e-05   5.246742461270747e-05
-4.09035040230677   5.325877491816379e-05   5.325877491816379e-05   5.325877491816379e-05   5.325877491816379e-05   5.325877491816379e-05   5.325877491816379e-05
-4.084815965695556   5.4706214370395954e-05   5.4706214370395954e-05   5.4706214370395954e-05   5.4706214370395954e-05   5.4706214370395954e-05   5.4706214370395954e-05
-4.079311990563147   5.6153653822628175e-05   5.6153653822628175e-05   5.6153653822628175e-05   5.6153653822628175e-05   5.6153653822628175e-05   5.6153653822628175e-05
-4.073838143424906   5.76010932748604e-05   5.76010932748604e-05   5.76010932748604e-05   5.76010932748604e-05   5.76010932748604e-05   5.76010932748604e-05
-4.0683940962427565   5.904853272709257e-05   5.904853272709257e-05   5.904853272709257e-05   5.904853272709257e-05   5.904853272709257e-05   5.904853272709257e-05
-4.062979526307216   6.049597217932474e-05   6.049597217932474e-05   6.049597217932474e-05   6.049597217932474e-05   6.049597217932474e-05   6.049597217932474e-05
-4.057594116122608   6.194341163155691e-05   6.194341163155691e-05   6.194341163155691e-05   6.194341163155691e-05   6.194341163155691e-05   6.194341163155691e-05
-4.0522375532953525   6.339085108378914e-05   6.339085108378914e-05   6.339085108378914e-05   6.339085108378914e-05   6.339085108378914e-05   6.339085108378914e-05
-4.046909530425223   6.483829053602135e-05   6.483829053602135e-05   6.483829053602135e-05   6.483829053602135e-05   6.483829053602135e-05   6.483829053602135e-05
-4.041609744999494   6.628572998825353e-05   6.628572998825353e-05   6.628572998825353e-05   6.628572998825353e-05   6.628572998825353e-05   6.628572998825353e-05
-4.036337899289877   6.77331694404857e-05   6.77331694404857e-05   6.77331694404857e-05   6.77331694404857e-05   6.77331694404857e-05   6.77331694404857e-05
-4.031093700252151   6.918060889271791e-05   6.918060889271791e-05   6.918060889271791e-05   6.918060889271791e-05   6.918060889271791e-05   6.918060889271791e-05
-4.025876859428425   7.062804834495009e-05   7.062804834495009e-05   7.062804834495009e-05   7.062804834495009e-05   7.062804834495009e-05   7.062804834495009e-05
-4.020687092851925   7.20374889946394e-05   7.20374889946394e-05   7.20374889946394e-05   7.20374889946394e-05   7.20374889946394e-05   7.20374889946394e-05
