# Neutrino-Ar40 nc cross section (10^-38 cm^2/GeV, natural abundance) # 
# log(energy in GeV)  nu_e      nu_mu      nu_tau      nu_e_bar      nu_mu_bar    nu_tau_bar # 

-5.267349321983568   0.0   0.0   0.0   0.0   0.0   0.0
-5.249216341812966   0.0   0.0   0.0   0.0   0.0   0.0
-5.231406319122076   0.0   0.0   0.0   0.0   0.0   0.0
-5.213907950860679   0.0   0.0   0.0   0.0   0.0   0.0
-5.196710517173588   0.0   0.0   0.0   0.0   0.0   0.0
-5.179803841957169   0.0   0.0   0.0   0.0   0.0   0.0
-5.163178256695107   0.0   0.0   0.0   0.0   0.0   0.0
-5.146824567251627   0.0   0.0   0.0   0.0   0.0   0.0
-5.13073402333657   0.0   0.0   0.0   0.0   0.0   0.0
-5.114898290388478   0.0   0.0   0.0   0.0   0.0   0.0
-5.099309423649438   6.788022790463228e-07   6.788022790463228e-07   6.788022790463228e-07   6.788022790463228e-07   6.788022790463228e-07   6.788022790463228e-07
-5.083959844229854   2.736275393810776e-06   2.736275393810776e-06   2.736275393810776e-06   2.736275393810776e-06   2.736275393810776e-06   2.736275393810776e-06
-5.068842316982591   4.793748508575229e-06   4.793748508575229e-06   4.793748508575229e-06   4.793748508575229e-06   4.793748508575229e-06   4.793748508575229e-06
-5.0539499300248245   6.851221623339702e-06   6.851221623339702e-06   6.851221623339702e-06   6.851221623339702e-06   6.851221623339702e-06   6.851221623339702e-06
-5.039276075762491   8.908694738104173e-06   8.908694738104173e-06   8.908694738104173e-06   8.908694738104173e-06   8.908694738104173e-06   8.908694738104173e-06
-5.02481443328695   1.0966167852868626e-05   1.0966167852868626e-05   1.0966167852868626e-05   1.0966167852868626e-05   1.0966167852868626e-05   1.0966167852868626e-05
-5.010558952026489   1.302364096763308e-05   1.302364096763308e-05   1.302364096763308e-05   1.302364096763308e-05   1.302364096763308e-05   1.302364096763308e-05
-4.99650383654681   1.5081114082397553e-05   1.5081114082397553e-05   1.5081114082397553e-05   1.5081114082397553e-05   1.5081114082397553e-05   1.5081114082397553e-05
-4.982643532404967   1.7138587197162023e-05   1.7138587197162023e-05   1.7138587197162023e-05   1.7138587197162023e-05   1.7138587197162023e-05   1.7138587197162023e-05
-4.968972712970318   1.9196060311926477e-05   1.9196060311926477e-05   1.9196060311926477e-05   1.9196060311926477e-05   1.9196060311926477e-05   1.9196060311926477e-05
-4.955486267134243   2.1253533426690932e-05   2.1253533426690932e-05   2.1253533426690932e-05   2.1253533426690932e-05   2.1253533426690932e-05   2.1253533426690932e-05
-4.942179287837648   2.3311006541455404e-05   2.3311006541455404e-05   2.3311006541455404e-05   2.3311006541455404e-05   2.3311006541455404e-05   2.3311006541455404e-05
-4.929047061351838   2.5368479656219876e-05   2.5368479656219876e-05   2.5368479656219876e-05   2.5368479656219876e-05   2.5368479656219876e-05   2.5368479656219876e-05
-4.916085057254132   2.7425952770984327e-05   2.7425952770984327e-05   2.7425952770984327e-05   2.7425952770984327e-05   2.7425952770984327e-05   2.7425952770984327e-05
-4.903288919044903   2.948342588574878e-05   2.948342588574878e-05   2.948342588574878e-05   2.948342588574878e-05   2.948342588574878e-05   2.948342588574878e-05
-4.890654455357392   3.154089900051323e-05   3.154089900051323e-05   3.154089900051323e-05   3.154089900051323e-05   3.154089900051323e-05   3.154089900051323e-05
-4.878177631715937   3.3598372115277705e-05   3.3598372115277705e-05   3.3598372115277705e-05   3.3598372115277705e-05   3.3598372115277705e-05   3.3598372115277705e-05
-4.865854562802045   3.5655845230042176e-05   3.5655845230042176e-05   3.5655845230042176e-05   3.5655845230042176e-05   3.5655845230042176e-05   3.5655845230042176e-05
-4.853681505191228   3.736742629819317e-05   3.736742629819317e-05   3.736742629819317e-05   3.736742629819317e-05   3.736742629819317e-05   3.736742629819317e-05
-4.841654850526627   3.671026451141133e-05   3.671026451141133e-05   3.671026451141133e-05   3.671026451141133e-05   3.671026451141133e-05   3.671026451141133e-05
-4.829771119098263   3.6053102724629484e-05   3.6053102724629484e-05   3.6053102724629484e-05   3.6053102724629484e-05   3.6053102724629484e-05   3.6053102724629484e-05
-4.8180269537993565   3.5395940937847646e-05   3.5395940937847646e-05   3.5395940937847646e-05   3.5395940937847646e-05   3.5395940937847646e-05   3.5395940937847646e-05
-4.806419114433428   3.473877915106581e-05   3.473877915106581e-05   3.473877915106581e-05   3.473877915106581e-05   3.473877915106581e-05   3.473877915106581e-05
-4.7949444723480426   3.408161736428397e-05   3.408161736428397e-05   3.408161736428397e-05   3.408161736428397e-05   3.408161736428397e-05   3.408161736428397e-05
-4.783600005372951   3.342445557750213e-05   3.342445557750213e-05   3.342445557750213e-05   3.342445557750213e-05   3.342445557750213e-05   3.342445557750213e-05
-4.772382793042154   3.276729379072028e-05   3.276729379072028e-05   3.276729379072028e-05   3.276729379072028e-05   3.276729379072028e-05   3.276729379072028e-05
-4.76129001208098   3.211013200393844e-05   3.211013200393844e-05   3.211013200393844e-05   3.211013200393844e-05   3.211013200393844e-05   3.211013200393844e-05
-4.750318932140733   3.1452970217156605e-05   3.1452970217156605e-05   3.1452970217156605e-05   3.1452970217156605e-05   3.1452970217156605e-05   3.1452970217156605e-05
-4.739466911764788   3.079580843037476e-05   3.079580843037476e-05   3.079580843037476e-05   3.079580843037476e-05   3.079580843037476e-05   3.079580843037476e-05
-4.72873139457124   3.013864664359292e-05   3.013864664359292e-05   3.013864664359292e-05   3.013864664359292e-05   3.013864664359292e-05   3.013864664359292e-05
-4.718109905638275   2.9481484856811084e-05   2.9481484856811084e-05   2.9481484856811084e-05   2.9481484856811084e-05   2.9481484856811084e-05   2.9481484856811084e-05
-4.707600048079503   2.8824323070029246e-05   2.8824323070029246e-05   2.8824323070029246e-05   2.8824323070029246e-05   2.8824323070029246e-05   2.8824323070029246e-05
-4.6971994997974065   2.8167161283247408e-05   2.8167161283247408e-05   2.8167161283247408e-05   2.8167161283247408e-05   2.8167161283247408e-05   2.8167161283247408e-05
-4.686906010403858   2.7509999496465556e-05   2.7509999496465556e-05   2.7509999496465556e-05   2.7509999496465556e-05   2.7509999496465556e-05   2.7509999496465556e-05
-4.676717398297551   2.685283770968372e-05   2.685283770968372e-05   2.685283770968372e-05   2.685283770968372e-05   2.685283770968372e-05   2.685283770968372e-05
-4.666631547888807   2.619567592290188e-05   2.619567592290188e-05   2.619567592290188e-05   2.619567592290188e-05   2.619567592290188e-05   2.619567592290188e-05
-4.65664640696294   2.5538514136120032e-05   2.5538514136120032e-05   2.5538514136120032e-05   2.5538514136120032e-05   2.5538514136120032e-05   2.5538514136120032e-05
-4.646759984173969   2.4881352349338204e-05   2.4881352349338204e-05   2.4881352349338204e-05   2.4881352349338204e-05   2.4881352349338204e-05   2.4881352349338204e-05
-4.636970346661007   2.4224190562556356e-05   2.4224190562556356e-05   2.4224190562556356e-05   2.4224190562556356e-05   2.4224190562556356e-05   2.4224190562556356e-05
-4.627275617780203   2.356702877577452e-05   2.356702877577452e-05   2.356702877577452e-05   2.356702877577452e-05   2.356702877577452e-05   2.356702877577452e-05
-4.617673974945567   2.2909866988992684e-05   2.2909866988992684e-05   2.2909866988992684e-05   2.2909866988992684e-05   2.2909866988992684e-05   2.2909866988992684e-05
-4.608163647572474   2.293236149821716e-05   2.293236149821716e-05   2.293236149821716e-05   2.293236149821716e-05   2.293236149821716e-05   2.293236149821716e-05
-4.598742915118048   2.299584854640461e-05   2.299584854640461e-05   2.299584854640461e-05   2.299584854640461e-05   2.299584854640461e-05   2.299584854640461e-05
-4.589410105212975   2.305933559459206e-05   2.305933559459206e-05   2.305933559459206e-05   2.305933559459206e-05   2.305933559459206e-05   2.305933559459206e-05
-4.580163591879711   2.3122822642779512e-05   2.3122822642779512e-05   2.3122822642779512e-05   2.3122822642779512e-05   2.3122822642779512e-05   2.3122822642779512e-05
-4.571001793832298   2.3186309690966964e-05   2.3186309690966964e-05   2.3186309690966964e-05   2.3186309690966964e-05   2.3186309690966964e-05   2.3186309690966964e-05
-4.561923172853374   2.3249796739154416e-05   2.3249796739154416e-05   2.3249796739154416e-05   2.3249796739154416e-05   2.3249796739154416e-05   2.3249796739154416e-05
-4.552926232244176   2.3313283787341867e-05   2.3313283787341867e-05   2.3313283787341867e-05   2.3313283787341867e-05   2.3313283787341867e-05   2.3313283787341867e-05
-4.544009515343676   2.3376770835529316e-05   2.3376770835529316e-05   2.3376770835529316e-05   2.3376770835529316e-05   2.3376770835529316e-05   2.3376770835529316e-05
-4.535171604113134   2.344025788371677e-05   2.344025788371677e-05   2.344025788371677e-05   2.344025788371677e-05   2.344025788371677e-05   2.344025788371677e-05
-4.526411117782662   2.350374493190422e-05   2.350374493190422e-05   2.350374493190422e-05   2.350374493190422e-05   2.350374493190422e-05   2.350374493190422e-05
-4.517726711556566   2.356723198009167e-05   2.356723198009167e-05   2.356723198009167e-05   2.356723198009167e-05   2.356723198009167e-05   2.356723198009167e-05
-4.50911707537441   2.3630719028279123e-05   2.3630719028279123e-05   2.3630719028279123e-05   2.3630719028279123e-05   2.3630719028279123e-05   2.3630719028279123e-05
-4.500580932724969   2.3694206076466574e-05   2.3694206076466574e-05   2.3694206076466574e-05   2.3694206076466574e-05   2.3694206076466574e-05   2.3694206076466574e-05
-4.4921170395103704   2.3757693124654026e-05   2.3757693124654026e-05   2.3757693124654026e-05   2.3757693124654026e-05   2.3757693124654026e-05   2.3757693124654026e-05
-4.4837241829579115   2.3821180172841474e-05   2.3821180172841474e-05   2.3821180172841474e-05   2.3821180172841474e-05   2.3821180172841474e-05   2.3821180172841474e-05
-4.47540118057715   2.3884667221028926e-05   2.3884667221028926e-05   2.3884667221028926e-05   2.3884667221028926e-05   2.3884667221028926e-05   2.3884667221028926e-05
-4.46714687916005   2.3948154269216378e-05   2.3948154269216378e-05   2.3948154269216378e-05   2.3948154269216378e-05   2.3948154269216378e-05   2.3948154269216378e-05
-4.458960153822049   2.401164131740383e-05   2.401164131740383e-05   2.401164131740383e-05   2.401164131740383e-05   2.401164131740383e-05   2.401164131740383e-05
-4.450839907082065   2.407512836559128e-05   2.407512836559128e-05   2.407512836559128e-05   2.407512836559128e-05   2.407512836559128e-05   2.407512836559128e-05
-4.442785067979554   2.413861541377873e-05   2.413861541377873e-05   2.413861541377873e-05   2.413861541377873e-05   2.413861541377873e-05   2.413861541377873e-05
-4.434794591226845   2.420210246196618e-05   2.420210246196618e-05   2.420210246196618e-05   2.420210246196618e-05   2.420210246196618e-05   2.420210246196618e-05
-4.426867456395073   2.4265589510153633e-05   2.4265589510153633e-05   2.4265589510153633e-05   2.4265589510153633e-05   2.4265589510153633e-05   2.4265589510153633e-05
-4.419002667132123   2.4329076558341085e-05   2.4329076558341085e-05   2.4329076558341085e-05   2.4329076558341085e-05   2.4329076558341085e-05   2.4329076558341085e-05
-4.411199250411094   2.4392563606528536e-05   2.4392563606528536e-05   2.4392563606528536e-05   2.4392563606528536e-05   2.4392563606528536e-05   2.4392563606528536e-05
-4.403456255807857   2.4456050654715985e-05   2.4456050654715985e-05   2.4456050654715985e-05   2.4456050654715985e-05   2.4456050654715985e-05   2.4456050654715985e-05
-4.395772754806363   2.4519537702903436e-05   2.4519537702903436e-05   2.4519537702903436e-05   2.4519537702903436e-05   2.4519537702903436e-05   2.4519537702903436e-05
-4.388147840130446   2.4583024751090888e-05   2.4583024751090888e-05   2.4583024751090888e-05   2.4583024751090888e-05   2.4583024751090888e-05   2.4583024751090888e-05
-4.380580625100898   2.464651179927834e-05   2.464651179927834e-05   2.464651179927834e-05   2.464651179927834e-05   2.464651179927834e-05   2.464651179927834e-05
-4.373070243016699   2.470999884746579e-05   2.470999884746579e-05   2.470999884746579e-05   2.470999884746579e-05   2.470999884746579e-05   2.470999884746579e-05
-4.3656158465593   2.4773485895653243e-05   2.4773485895653243e-05   2.4773485895653243e-05   2.4773485895653243e-05   2.4773485895653243e-05   2.4773485895653243e-05
-4.35821660721895   2.483697294384069e-05   2.483697294384069e-05   2.483697294384069e-05   2.483697294384069e-05   2.483697294384069e-05   2.483697294384069e-05
-4.350871714742096   2.4900459992028143e-05   2.4900459992028143e-05   2.4900459992028143e-05   2.4900459992028143e-05   2.4900459992028143e-05   2.4900459992028143e-05
-4.343580376598919   2.4963947040215595e-05   2.4963947040215595e-05   2.4963947040215595e-05   2.4963947040215595e-05   2.4963947040215595e-05   2.4963947040215595e-05
-4.336341817470154   2.5027434088403047e-05   2.5027434088403047e-05   2.5027434088403047e-05   2.5027434088403047e-05   2.5027434088403047e-05   2.5027434088403047e-05
-4.329155278752337   2.5090921136590498e-05   2.5090921136590498e-05   2.5090921136590498e-05   2.5090921136590498e-05   2.5090921136590498e-05   2.5090921136590498e-05
-4.322020018080718   2.5154408184777947e-05   2.5154408184777947e-05   2.5154408184777947e-05   2.5154408184777947e-05   2.5154408184777947e-05   2.5154408184777947e-05
-4.314935308869058   2.5217895232965398e-05   2.5217895232965398e-05   2.5217895232965398e-05   2.5217895232965398e-05   2.5217895232965398e-05   2.5217895232965398e-05
-4.307900439865632   2.528138228115285e-05   2.528138228115285e-05   2.528138228115285e-05   2.528138228115285e-05   2.528138228115285e-05   2.528138228115285e-05
-4.300914714724725   2.53448693293403e-05   2.53448693293403e-05   2.53448693293403e-05   2.53448693293403e-05   2.53448693293403e-05   2.53448693293403e-05
-4.293977451592999   2.5408356377527753e-05   2.5408356377527753e-05   2.5408356377527753e-05   2.5408356377527753e-05   2.5408356377527753e-05   2.5408356377527753e-05
-4.2870879827101085   2.54718434257152e-05   2.54718434257152e-05   2.54718434257152e-05   2.54718434257152e-05   2.54718434257152e-05   2.54718434257152e-05
-4.280245654022976   2.5656851143653126e-05   2.5656851143653126e-05   2.5656851143653126e-05   2.5656851143653126e-05   2.5656851143653126e-05   2.5656851143653126e-05
-4.273449824813181   2.5920119991174724e-05   2.5920119991174724e-05   2.5920119991174724e-05   2.5920119991174724e-05   2.5920119991174724e-05   2.5920119991174724e-05
-4.266699867336918   2.618338883869631e-05   2.618338883869631e-05   2.618338883869631e-05   2.618338883869631e-05   2.618338883869631e-05   2.618338883869631e-05
-4.2599951664770295   2.6446657686217906e-05   2.6446657686217906e-05   2.6446657686217906e-05   2.6446657686217906e-05   2.6446657686217906e-05   2.6446657686217906e-05
-4.253335119406623   2.6709926533739493e-05   2.6709926533739493e-05   2.6709926533739493e-05   2.6709926533739493e-05   2.6709926533739493e-05   2.6709926533739493e-05
-4.246719135263819   2.697319538126109e-05   2.697319538126109e-05   2.697319538126109e-05   2.697319538126109e-05   2.697319538126109e-05   2.697319538126109e-05
-4.240146634837186   2.723646422878269e-05   2.723646422878269e-05   2.723646422878269e-05   2.723646422878269e-05   2.723646422878269e-05   2.723646422878269e-05
-4.233617050261441   2.7499733076304276e-05   2.7499733076304276e-05   2.7499733076304276e-05   2.7499733076304276e-05   2.7499733076304276e-05   2.7499733076304276e-05
-4.2271298247230344   2.7763001923825874e-05   2.7763001923825874e-05   2.7763001923825874e-05   2.7763001923825874e-05   2.7763001923825874e-05   2.7763001923825874e-05
-4.220684412175207   2.8026270771347468e-05   2.8026270771347468e-05   2.8026270771347468e-05   2.8026270771347468e-05   2.8026270771347468e-05   2.8026270771347468e-05
-4.214280277062181   2.8289539618869055e-05   2.8289539618869055e-05   2.8289539618869055e-05   2.8289539618869055e-05   2.8289539618869055e-05   2.8289539618869055e-05
-4.207916894052119   2.8552808466390653e-05   2.8552808466390653e-05   2.8552808466390653e-05   2.8552808466390653e-05   2.8552808466390653e-05   2.8552808466390653e-05
-4.201593747778541   2.881607731391224e-05   2.881607731391224e-05   2.881607731391224e-05   2.881607731391224e-05   2.881607731391224e-05   2.881607731391224e-05
-4.195310332589845   2.950676727392945e-05   2.950676727392945e-05   2.950676727392945e-05   2.950676727392945e-05   2.950676727392945e-05   2.950676727392945e-05
-4.189066152306662   3.0529032400003916e-05   3.0529032400003916e-05   3.0529032400003916e-05   3.0529032400003916e-05   3.0529032400003916e-05   3.0529032400003916e-05
-4.182860719986736   3.155129752607835e-05   3.155129752607835e-05   3.155129752607835e-05   3.155129752607835e-05   3.155129752607835e-05   3.155129752607835e-05
-4.176693557697053   3.2573562652152816e-05   3.2573562652152816e-05   3.2573562652152816e-05   3.2573562652152816e-05   3.2573562652152816e-05   3.2573562652152816e-05
-4.170564196292957   3.3595827778227284e-05   3.3595827778227284e-05   3.3595827778227284e-05   3.3595827778227284e-05   3.3595827778227284e-05   3.3595827778227284e-05
-4.164472175203986   3.461809290430171e-05   3.461809290430171e-05   3.461809290430171e-05   3.461809290430171e-05   3.461809290430171e-05   3.461809290430171e-05
-4.158417042226208   3.564035803037618e-05   3.564035803037618e-05   3.564035803037618e-05   3.564035803037618e-05   3.564035803037618e-05   3.564035803037618e-05
-4.152398353320784   3.666262315645061e-05   3.666262315645061e-05   3.666262315645061e-05   3.666262315645061e-05   3.666262315645061e-05   3.666262315645061e-05
-4.146415672418578   3.768488828252508e-05   3.768488828252508e-05   3.768488828252508e-05   3.768488828252508e-05   3.768488828252508e-05   3.768488828252508e-05
-4.140468571230565   3.8707153408599545e-05   3.8707153408599545e-05   3.8707153408599545e-05   3.8707153408599545e-05   3.8707153408599545e-05   3.8707153408599545e-05
-4.134556629063849   3.972941853467397e-05   3.972941853467397e-05   3.972941853467397e-05   3.972941853467397e-05   3.972941853467397e-05   3.972941853467397e-05
-4.12867943264308   4.075168366074844e-05   4.075168366074844e-05   4.075168366074844e-05   4.075168366074844e-05   4.075168366074844e-05   4.075168366074844e-05
-4.1228365759370975   4.1773948786822865e-05   4.1773948786822865e-05   4.1773948786822865e-05   4.1773948786822865e-05   4.1773948786822865e-05   4.1773948786822865e-05
-4.117027659990605   4.279621391289734e-05   4.279621391289734e-05   4.279621391289734e-05   4.279621391289734e-05   4.279621391289734e-05   4.279621391289734e-05
-4.111252292760703   4.38184790389718e-05   4.38184790389718e-05   4.38184790389718e-05   4.38184790389718e-05   4.38184790389718e-05   4.38184790389718e-05
-4.1055100889581215   4.484074416504623e-05   4.484074416504623e-05   4.484074416504623e-05   4.484074416504623e-05   4.484074416504623e-05   4.484074416504623e-05
-4.099800669892976   4.58630092911207e-05   4.58630092911207e-05   4.58630092911207e-05   4.58630092911207e-05   4.58630092911207e-05   4.58630092911207e-05
-4.094123663324909   4.688527441719517e-05   4.688527441719517e-05   4.688527441719517e-05   4.688527441719517e-05   4.688527441719517e-05   4.688527441719517e-05
-4.088478703317464   4.79075395432696e-05   4.79075395432696e-05   4.79075395432696e-05   4.79075395432696e-05   4.79075395432696e-05   4.79075395432696e-05
-4.082865430096532   4.892980466934406e-05   4.892980466934406e-05   4.892980466934406e-05   4.892980466934406e-05   4.892980466934406e-05   4.892980466934406e-05
-4.077283489912767   4.9952069795418494e-05   4.9952069795418494e-05   4.9952069795418494e-05   4.9952069795418494e-05   4.9952069795418494e-05   4.9952069795418494e-05
