# Neutrino-Ar40 nc cross section (10^-38 cm^2/GeV, natural abundance) # 
# log(energy in GeV)  nu_e      nu_mu      nu_tau      nu_e_bar      nu_mu_bar    nu_tau_bar # 

-5.267349321983568   -0.00022402565947785962   -0.00022402565947785962   -0.00022402565947785962   -0.00022402565947785962   -0.00022402565947785962   -0.00022402565947785962
-5.249216341812966   -0.00020252936480116715   -0.00020252936480116715   -0.00020252936480116715   -0.00020252936480116715   -0.00020252936480116715   -0.00020252936480116715
-5.231406319122076   -0.00018103307012447446   -0.00018103307012447446   -0.00018103307012447446   -0.00018103307012447446   -0.00018103307012447446   -0.00018103307012447446
-5.213907950860679   -0.000159536775447782   -0.000159536775447782   -0.000159536775447782   -0.000159536775447782   -0.000159536775447782   -0.000159536775447782
-5.196710517173588   -0.0001380404807710893   -0.0001380404807710893   -0.0001380404807710893   -0.0001380404807710893   -0.0001380404807710893   -0.0001380404807710893
-5.179803841957169   -0.00011654418609439682   -0.00011654418609439682   -0.00011654418609439682   -0.00011654418609439682   -0.00011654418609439682   -0.00011654418609439682
-5.163178256695107   -9.504789141770415e-05   -9.504789141770415e-05   -9.504789141770415e-05   -9.504789141770415e-05   -9.504789141770415e-05   -9.504789141770415e-05
-5.146824567251627   -7.355159674101168e-05   -7.355159674101168e-05   -7.355159674101168e-05   -7.355159674101168e-05   -7.355159674101168e-05   -7.355159674101168e-05
-5.13073402333657   -5.2055302064318994e-05   -5.2055302064318994e-05   -5.2055302064318994e-05   -5.2055302064318994e-05   -5.2055302064318994e-05   -5.2055302064318994e-05
-5.114898290388478   -3.0559007387626525e-05   -3.0559007387626525e-05   -3.0559007387626525e-05   -3.0559007387626525e-05   -3.0559007387626525e-05   -3.0559007387626525e-05
-5.099309423649438   -1.220688352889634e-05   -1.220688352889634e-05   -1.220688352889634e-05   -1.220688352889634e-05   -1.220688352889634e-05   -1.220688352889634e-05
-5.083959844229854   -2.4067902113113944e-07   -2.4067902113113944e-07   -2.4067902113113944e-07   -2.4067902113113944e-07   -2.4067902113113944e-07   -2.4067902113113944e-07
-5.068842316982591   1.1725525486634062e-05   1.1725525486634062e-05   1.1725525486634062e-05   1.1725525486634062e-05   1.1725525486634062e-05   1.1725525486634062e-05
-5.0539499300248245   2.3691729994399375e-05   2.3691729994399375e-05   2.3691729994399375e-05   2.3691729994399375e-05   2.3691729994399375e-05   2.3691729994399375e-05
-5.039276075762491   3.5657934502164685e-05   3.5657934502164685e-05   3.5657934502164685e-05   3.5657934502164685e-05   3.5657934502164685e-05   3.5657934502164685e-05
-5.02481443328695   4.7624139009929886e-05   4.7624139009929886e-05   4.7624139009929886e-05   4.7624139009929886e-05   4.7624139009929886e-05   4.7624139009929886e-05
-5.010558952026489   5.959034351769509e-05   5.959034351769509e-05   5.959034351769509e-05   5.959034351769509e-05   5.959034351769509e-05   5.959034351769509e-05
-4.99650383654681   7.15565480254604e-05   7.15565480254604e-05   7.15565480254604e-05   7.15565480254604e-05   7.15565480254604e-05   7.15565480254604e-05
-4.982643532404967   8.352275253322572e-05   8.352275253322572e-05   8.352275253322572e-05   8.352275253322572e-05   8.352275253322572e-05   8.352275253322572e-05
-4.968972712970318   9.548895704099092e-05   9.548895704099092e-05   9.548895704099092e-05   9.548895704099092e-05   9.548895704099092e-05   9.548895704099092e-05
-4.955486267134243   0.00010745516154875612   0.00010745516154875612   0.00010745516154875612   0.00010745516154875612   0.00010745516154875612   0.00010745516154875612
-4.942179287837648   0.00011942136605652142   0.00011942136605652142   0.00011942136605652142   0.00011942136605652142   0.00011942136605652142   0.00011942136605652142
-4.929047061351838   0.00013138757056428674   0.00013138757056428674   0.00013138757056428674   0.00013138757056428674   0.00013138757056428674   0.00013138757056428674
-4.916085057254132   0.00014335377507205196   0.00014335377507205196   0.00014335377507205196   0.00014335377507205196   0.00014335377507205196   0.00014335377507205196
-4.903288919044903   0.00015531997957981715   0.00015531997957981715   0.00015531997957981715   0.00015531997957981715   0.00015531997957981715   0.00015531997957981715
-4.890654455357392   0.00016728618408758236   0.00016728618408758236   0.00016728618408758236   0.00016728618408758236   0.00016728618408758236   0.00016728618408758236
-4.878177631715937   0.00017925238859534766   0.00017925238859534766   0.00017925238859534766   0.00017925238859534766   0.00017925238859534766   0.00017925238859534766
-4.865854562802045   0.00019121859310311298   0.00019121859310311298   0.00019121859310311298   0.00019121859310311298   0.00019121859310311298   0.00019121859310311298
-4.853681505191228   0.00020120921852873245   0.00020120921852873245   0.00020120921852873245   0.00020120921852873245   0.00020120921852873245   0.00020120921852873245
-4.841654850526627   0.00019767065506144562   0.00019767065506144562   0.00019767065506144562   0.00019767065506144562   0.00019767065506144562   0.00019767065506144562
-4.829771119098263   0.00019413209159415876   0.00019413209159415876   0.00019413209159415876   0.00019413209159415876   0.00019413209159415876   0.00019413209159415876
-4.8180269537993565   0.00019059352812687193   0.00019059352812687193   0.00019059352812687193   0.00019059352812687193   0.00019059352812687193   0.00019059352812687193
-4.806419114433428   0.00018705496465958512   0.00018705496465958512   0.00018705496465958512   0.00018705496465958512   0.00018705496465958512   0.00018705496465958512
-4.7949444723480426   0.0001835164011922983   0.0001835164011922983   0.0001835164011922983   0.0001835164011922983   0.0001835164011922983   0.0001835164011922983
-4.783600005372951   0.00017997783772501149   0.00017997783772501149   0.00017997783772501149   0.00017997783772501149   0.00017997783772501149   0.00017997783772501149
-4.772382793042154   0.0001764392742577246   0.0001764392742577246   0.0001764392742577246   0.0001764392742577246   0.0001764392742577246   0.0001764392742577246
-4.76129001208098   0.00017290071079043777   0.00017290071079043777   0.00017290071079043777   0.00017290071079043777   0.00017290071079043777   0.00017290071079043777
-4.750318932140733   0.00016936214732315096   0.00016936214732315096   0.00016936214732315096   0.00016936214732315096   0.00016936214732315096   0.00016936214732315096
-4.739466911764788   0.00016582358385586407   0.00016582358385586407   0.00016582358385586407   0.00016582358385586407   0.00016582358385586407   0.00016582358385586407
-4.72873139457124   0.00016228502038857724   0.00016228502038857724   0.00016228502038857724   0.00016228502038857724   0.00016228502038857724   0.00016228502038857724
-4.718109905638275   0.00015874645692129044   0.00015874645692129044   0.00015874645692129044   0.00015874645692129044   0.00015874645692129044   0.00015874645692129044
-4.707600048079503   0.00015520789345400363   0.00015520789345400363   0.00015520789345400363   0.00015520789345400363   0.00015520789345400363   0.00015520789345400363
-4.6971994997974065   0.0001516693299867168   0.0001516693299867168   0.0001516693299867168   0.0001516693299867168   0.0001516693299867168   0.0001516693299867168
-4.686906010403858   0.0001481307665194299   0.0001481307665194299   0.0001481307665194299   0.0001481307665194299   0.0001481307665194299   0.0001481307665194299
-4.676717398297551   0.0001445922030521431   0.0001445922030521431   0.0001445922030521431   0.0001445922030521431   0.0001445922030521431   0.0001445922030521431
-4.666631547888807   0.00014105363958485627   0.00014105363958485627   0.00014105363958485627   0.00014105363958485627   0.00014105363958485627   0.00014105363958485627
-4.65664640696294   0.0001375150761175694   0.0001375150761175694   0.0001375150761175694   0.0001375150761175694   0.0001375150761175694   0.0001375150761175694
-4.646759984173969   0.00013397651265028264   0.00013397651265028264   0.00013397651265028264   0.00013397651265028264   0.00013397651265028264   0.00013397651265028264
-4.636970346661007   0.00013043794918299578   0.00013043794918299578   0.00013043794918299578   0.00013043794918299578   0.00013043794918299578   0.00013043794918299578
-4.627275617780203   0.00012689938571570894   0.00012689938571570894   0.00012689938571570894   0.00012689938571570894   0.00012689938571570894   0.00012689938571570894
-4.617673974945567   0.0001233608222484221   0.0001233608222484221   0.0001233608222484221   0.0001233608222484221   0.0001233608222484221   0.0001233608222484221
-4.608163647572474   0.00012348194652886163   0.00012348194652886163   0.00012348194652886163   0.00012348194652886163   0.00012348194652886163   0.00012348194652886163
-4.598742915118048   0.00012382379986525558   0.00012382379986525558   0.00012382379986525558   0.00012382379986525558   0.00012382379986525558   0.00012382379986525558
-4.589410105212975   0.00012416565320164956   0.00012416565320164956   0.00012416565320164956   0.00012416565320164956   0.00012416565320164956   0.00012416565320164956
-4.580163591879711   0.00012450750653804352   0.00012450750653804352   0.00012450750653804352   0.00012450750653804352   0.00012450750653804352   0.00012450750653804352
-4.571001793832298   0.00012484935987443747   0.00012484935987443747   0.00012484935987443747   0.00012484935987443747   0.00012484935987443747   0.00012484935987443747
-4.561923172853374   0.00012519121321083145   0.00012519121321083145   0.00012519121321083145   0.00012519121321083145   0.00012519121321083145   0.00012519121321083145
-4.552926232244176   0.00012553306654722543   0.00012553306654722543   0.00012553306654722543   0.00012553306654722543   0.00012553306654722543   0.00012553306654722543
-4.544009515343676   0.00012587491988361939   0.00012587491988361939   0.00012587491988361939   0.00012587491988361939   0.00012587491988361939   0.00012587491988361939
-4.535171604113134   0.00012621677322001337   0.00012621677322001337   0.00012621677322001337   0.00012621677322001337   0.00012621677322001337   0.00012621677322001337
-4.526411117782662   0.00012655862655640732   0.00012655862655640732   0.00012655862655640732   0.00012655862655640732   0.00012655862655640732   0.00012655862655640732
-4.517726711556566   0.0001269004798928013   0.0001269004798928013   0.0001269004798928013   0.0001269004798928013   0.0001269004798928013   0.0001269004798928013
-4.50911707537441   0.00012724233322919525   0.00012724233322919525   0.00012724233322919525   0.00012724233322919525   0.00012724233322919525   0.00012724233322919525
-4.500580932724969   0.0001275841865655892   0.0001275841865655892   0.0001275841865655892   0.0001275841865655892   0.0001275841865655892   0.0001275841865655892
-4.4921170395103704   0.0001279260399019832   0.0001279260399019832   0.0001279260399019832   0.0001279260399019832   0.0001279260399019832   0.0001279260399019832
-4.4837241829579115   0.00012826789323837714   0.00012826789323837714   0.00012826789323837714   0.00012826789323837714   0.00012826789323837714   0.00012826789323837714
-4.47540118057715   0.00012860974657477112   0.00012860974657477112   0.00012860974657477112   0.00012860974657477112   0.00012860974657477112   0.00012860974657477112
-4.46714687916005   0.00012895159991116508   0.00012895159991116508   0.00012895159991116508   0.00012895159991116508   0.00012895159991116508   0.00012895159991116508
-4.458960153822049   0.00012929345324755906   0.00012929345324755906   0.00012929345324755906   0.00012929345324755906   0.00012929345324755906   0.00012929345324755906
-4.450839907082065   0.00012963530658395304   0.00012963530658395304   0.00012963530658395304   0.00012963530658395304   0.00012963530658395304   0.00012963530658395304
-4.442785067979554   0.000129977159920347   0.000129977159920347   0.000129977159920347   0.000129977159920347   0.000129977159920347   0.000129977159920347
-4.434794591226845   0.00013031901325674094   0.00013031901325674094   0.00013031901325674094   0.00013031901325674094   0.00013031901325674094   0.00013031901325674094
-4.426867456395073   0.00013066086659313492   0.00013066086659313492   0.00013066086659313492   0.00013066086659313492   0.00013066086659313492   0.00013066086659313492
-4.419002667132123   0.00013100271992952888   0.00013100271992952888   0.00013100271992952888   0.00013100271992952888   0.00013100271992952888   0.00013100271992952888
-4.411199250411094   0.00013134457326592286   0.00013134457326592286   0.00013134457326592286   0.00013134457326592286   0.00013134457326592286   0.00013134457326592286
-4.403456255807857   0.0001316864266023168   0.0001316864266023168   0.0001316864266023168   0.0001316864266023168   0.0001316864266023168   0.0001316864266023168
-4.395772754806363   0.0001320282799387108   0.0001320282799387108   0.0001320282799387108   0.0001320282799387108   0.0001320282799387108   0.0001320282799387108
-4.388147840130446   0.00013237013327510477   0.00013237013327510477   0.00013237013327510477   0.00013237013327510477   0.00013237013327510477   0.00013237013327510477
-4.380580625100898   0.00013271198661149873   0.00013271198661149873   0.00013271198661149873   0.00013271198661149873   0.00013271198661149873   0.00013271198661149873
-4.373070243016699   0.00013305383994789268   0.00013305383994789268   0.00013305383994789268   0.00013305383994789268   0.00013305383994789268   0.00013305383994789268
-4.3656158465593   0.00013339569328428666   0.00013339569328428666   0.00013339569328428666   0.00013339569328428666   0.00013339569328428666   0.00013339569328428666
-4.35821660721895   0.00013373754662068061   0.00013373754662068061   0.00013373754662068061   0.00013373754662068061   0.00013373754662068061   0.00013373754662068061
-4.350871714742096   0.0001340793999570746   0.0001340793999570746   0.0001340793999570746   0.0001340793999570746   0.0001340793999570746   0.0001340793999570746
-4.343580376598919   0.00013442125329346855   0.00013442125329346855   0.00013442125329346855   0.00013442125329346855   0.00013442125329346855   0.00013442125329346855
-4.336341817470154   0.00013476310662986253   0.00013476310662986253   0.00013476310662986253   0.00013476310662986253   0.00013476310662986253   0.00013476310662986253
-4.329155278752337   0.0001351049599662565   0.0001351049599662565   0.0001351049599662565   0.0001351049599662565   0.0001351049599662565   0.0001351049599662565
-4.322020018080718   0.00013544681330265046   0.00013544681330265046   0.00013544681330265046   0.00013544681330265046   0.00013544681330265046   0.00013544681330265046
-4.314935308869058   0.00013578866663904444   0.00013578866663904444   0.00013578866663904444   0.00013578866663904444   0.00013578866663904444   0.00013578866663904444
-4.307900439865632   0.0001361305199754384   0.0001361305199754384   0.0001361305199754384   0.0001361305199754384   0.0001361305199754384   0.0001361305199754384
-4.300914714724725   0.00013647237331183235   0.00013647237331183235   0.00013647237331183235   0.00013647237331183235   0.00013647237331183235   0.00013647237331183235
-4.293977451592999   0.00013681422664822633   0.00013681422664822633   0.00013681422664822633   0.00013681422664822633   0.00013681422664822633   0.00013681422664822633
-4.2870879827101085   0.00013715607998462029   0.00013715607998462029   0.00013715607998462029   0.00013715607998462029   0.00013715607998462029   0.00013715607998462029
-4.280245654022976   0.0001381522753889014   0.0001381522753889014   0.0001381522753889014   0.0001381522753889014   0.0001381522753889014   0.0001381522753889014
-4.273449824813181   0.00013956987687555617   0.00013956987687555617   0.00013956987687555617   0.00013956987687555617   0.00013956987687555617   0.00013956987687555617
-4.266699867336918   0.00014098747836221087   0.00014098747836221087   0.00014098747836221087   0.00014098747836221087   0.00014098747836221087   0.00014098747836221087
-4.2599951664770295   0.00014240507984886563   0.00014240507984886563   0.00014240507984886563   0.00014240507984886563   0.00014240507984886563   0.00014240507984886563
-4.253335119406623   0.00014382268133552033   0.00014382268133552033   0.00014382268133552033   0.00014382268133552033   0.00014382268133552033   0.00014382268133552033
-4.246719135263819   0.0001452402828221751   0.0001452402828221751   0.0001452402828221751   0.0001452402828221751   0.0001452402828221751   0.0001452402828221751
-4.240146634837186   0.00014665788430882982   0.00014665788430882982   0.00014665788430882982   0.00014665788430882982   0.00014665788430882982   0.00014665788430882982
-4.233617050261441   0.00014807548579548452   0.00014807548579548452   0.00014807548579548452   0.00014807548579548452   0.00014807548579548452   0.00014807548579548452
-4.2271298247230344   0.00014949308728213928   0.00014949308728213928   0.00014949308728213928   0.00014949308728213928   0.00014949308728213928   0.00014949308728213928
-4.220684412175207   0.00015091068876879404   0.00015091068876879404   0.00015091068876879404   0.00015091068876879404   0.00015091068876879404   0.00015091068876879404
-4.214280277062181   0.00015232829025544874   0.00015232829025544874   0.00015232829025544874   0.00015232829025544874   0.00015232829025544874   0.00015232829025544874
-4.207916894052119   0.0001537458917421035   0.0001537458917421035   0.0001537458917421035   0.0001537458917421035   0.0001537458917421035   0.0001537458917421035
-4.201593747778541   0.0001551634932287582   0.0001551634932287582   0.0001551634932287582   0.0001551634932287582   0.0001551634932287582   0.0001551634932287582
-4.195310332589845   0.00015888259301346624   0.00015888259301346624   0.00015888259301346624   0.00015888259301346624   0.00015888259301346624   0.00015888259301346624
-4.189066152306662   0.0001643870975384826   0.0001643870975384826   0.0001643870975384826   0.0001643870975384826   0.0001643870975384826   0.0001643870975384826
-4.182860719986736   0.00016989160206349875   0.00016989160206349875   0.00016989160206349875   0.00016989160206349875   0.00016989160206349875   0.00016989160206349875
-4.176693557697053   0.0001753961065885151   0.0001753961065885151   0.0001753961065885151   0.0001753961065885151   0.0001753961065885151   0.0001753961065885151
-4.170564196292957   0.00018090061111353148   0.00018090061111353148   0.00018090061111353148   0.00018090061111353148   0.00018090061111353148   0.00018090061111353148
-4.164472175203986   0.00018640511563854762   0.00018640511563854762   0.00018640511563854762   0.00018640511563854762   0.00018640511563854762   0.00018640511563854762
-4.158417042226208   0.00019190962016356398   0.00019190962016356398   0.00019190962016356398   0.00019190962016356398   0.00019190962016356398   0.00019190962016356398
-4.152398353320784   0.00019741412468858016   0.00019741412468858016   0.00019741412468858016   0.00019741412468858016   0.00019741412468858016   0.00019741412468858016
-4.146415672418578   0.00020291862921359652   0.00020291862921359652   0.00020291862921359652   0.00020291862921359652   0.00020291862921359652   0.00020291862921359652
-4.140468571230565   0.00020842313373861286   0.00020842313373861286   0.00020842313373861286   0.00020842313373861286   0.00020842313373861286   0.00020842313373861286
-4.134556629063849   0.00021392763826362903   0.00021392763826362903   0.00021392763826362903   0.00021392763826362903   0.00021392763826362903   0.00021392763826362903
-4.12867943264308   0.0002194321427886454   0.0002194321427886454   0.0002194321427886454   0.0002194321427886454   0.0002194321427886454   0.0002194321427886454
-4.1228365759370975   0.00022493664731366154   0.00022493664731366154   0.00022493664731366154   0.00022493664731366154   0.00022493664731366154   0.00022493664731366154
