# Neutrino-Ar40 nc cross section (10^-38 cm^2/GeV, natural abundance) # 
# log(energy in GeV)  nu_e      nu_mu      nu_tau      nu_e_bar      nu_mu_bar    nu_tau_bar # 

-4.964364732104951   0.0   0.0   0.0   0.0   0.0   0.0
-4.951139149637477   0.0   0.0   0.0   0.0   0.0   0.0
-4.938086202482567   0.0   0.0   0.0   0.0   0.0   0.0
-4.925201441785313   0.0   0.0   0.0   0.0   0.0   0.0
-4.912480588477547   0.0   0.0   0.0   0.0   0.0   0.0
-4.899919524746574   0.0   0.0   0.0   0.0   0.0   0.0
-4.887514286033089   0.0   0.0   0.0   0.0   0.0   0.0
-4.8752610535194   0.0   0.0   0.0   0.0   0.0   0.0
-4.863156147072312   0.0   0.0   0.0   0.0   0.0   0.0
-4.851196018608068   0.0   0.0   0.0   0.0   0.0   0.0
-4.839377245849394   0.0   0.0   0.0   0.0   0.0   0.0
-4.827696526447192   0.0   0.0   0.0   0.0   0.0   0.0
-4.816150672441585   0.0   0.0   0.0   0.0   0.0   0.0
-4.804736605039099   0.0   0.0   0.0   0.0   0.0   0.0
-4.793451349684572   0.0   0.0   0.0   0.0   0.0   0.0
-4.782292031408036   0.0   0.0   0.0   0.0   0.0   0.0
-4.771255870428379   0.0   0.0   0.0   0.0   0.0   0.0
-4.7603401779969685   0.0   0.0   0.0   0.0   0.0   0.0
-4.749542352465685   0.0   0.0   0.0   0.0   0.0   0.0
-4.738859875564976   0.0   0.0   0.0   0.0   0.0   0.0
-4.728290308878621   0.0   0.0   0.0   0.0   0.0   0.0
-4.7178312905028585   0.0   0.0   0.0   0.0   0.0   0.0
-4.707480531878419   0.0   0.0   0.0   0.0   0.0   0.0
-4.697235814784845   0.0   0.0   0.0   0.0   0.0   0.0
-4.687094988487214   0.0   0.0   0.0   0.0   0.0   0.0
-4.677055967026092   0.0   0.0   0.0   0.0   0.0   0.0
-4.66711672664217   853.6324388648266   853.6324388648266   853.6324388648266   853.6324388648266   853.6324388648266   853.6324388648266
-4.657275303327628   2295.8044303064225   2295.8044303064225   2295.8044303064225   2295.8044303064225   2295.8044303064225   2295.8044303064225
-4.647529790496829   3737.976421748045   3737.976421748045   3737.976421748045   3737.976421748045   3737.976421748045   3737.976421748045
-4.637878336769418   5180.14841318964   5180.14841318964   5180.14841318964   5180.14841318964   5180.14841318964   5180.14841318964
-4.628319143859379   6622.320404631264   6622.320404631264   6622.320404631264   6622.320404631264   6622.320404631264   6622.320404631264
-4.618850464564045   8064.492396072859   8064.492396072859   8064.492396072859   8064.492396072859   8064.492396072859   8064.492396072859
-4.609470600847421   9506.664387514482   9506.664387514482   9506.664387514482   9506.664387514482   9506.664387514482   9506.664387514482
-4.600177902012563   10948.836378956077   10948.836378956077   10948.836378956077   10948.836378956077   10948.836378956077   10948.836378956077
-4.590970762958102   12391.0083703977   12391.0083703977   12391.0083703977   12391.0083703977   12391.0083703977   12391.0083703977
-4.581847622514293   13833.180361839297   13833.180361839297   13833.180361839297   13833.180361839297   13833.180361839297   13833.180361839297
-4.572806961854295   15275.35235328092   15275.35235328092   15275.35235328092   15275.35235328092   15275.35235328092   15275.35235328092
-4.5638473029766065   16717.524344722515   16717.524344722515   16717.524344722515   16717.524344722515   16717.524344722515   16717.524344722515
-4.554967207254905   18159.69633616411   18159.69633616411   18159.69633616411   18159.69633616411   18159.69633616411   18159.69633616411
-4.546165274051694   18200.108271459005   18200.108271459005   18200.108271459005   18200.108271459005   18200.108271459005   18200.108271459005
-4.537440139392438   18063.47499132909   18063.47499132909   18063.47499132909   18063.47499132909   18063.47499132909   18063.47499132909
-4.528790474697046   17926.841711199177   17926.841711199177   17926.841711199177   17926.841711199177   17926.841711199177   17926.841711199177
-4.520214985565736   17790.208431069266   17790.208431069266   17790.208431069266   17790.208431069266   17790.208431069266   17790.208431069266
-4.511712410616526   17653.575150939352   17653.575150939352   17653.575150939352   17653.575150939352   17653.575150939352   17653.575150939352
-4.503281520371731   17516.941870809438   17516.941870809438   17516.941870809438   17516.941870809438   17516.941870809438   17516.941870809438
-4.494921116191006   17380.308590679528   17380.308590679528   17380.308590679528   17380.308590679528   17380.308590679528   17380.308590679528
-4.48663002924862   17243.675310549614   17243.675310549614   17243.675310549614   17243.675310549614   17243.675310549614   17243.675310549614
-4.478407119552783   17107.0420304197   17107.0420304197   17107.0420304197   17107.0420304197   17107.0420304197   17107.0420304197
-4.470251275004963   16970.408750289786   16970.408750289786   16970.408750289786   16970.408750289786   16970.408750289786   16970.408750289786
-4.462161410497259   16833.775470159875   16833.775470159875   16833.775470159875   16833.775470159875   16833.775470159875   16833.775470159875
-4.454136467045983   16697.14219002996   16697.14219002996   16697.14219002996   16697.14219002996   16697.14219002996   16697.14219002996
-4.446175410959741   16756.530868149875   16756.530868149875   16756.530868149875   16756.530868149875   16756.530868149875   16756.530868149875
-4.438277233040365   17686.306354599226   17686.306354599226   17686.306354599226   17686.306354599226   17686.306354599226   17686.306354599226
-4.430440947815146   18616.081841048577   18616.081841048577   18616.081841048577   18616.081841048577   18616.081841048577   18616.081841048577
-4.422665592798934   19545.857327497946   19545.857327497946   19545.857327497946   19545.857327497946   19545.857327497946   19545.857327497946
-4.414950227784685   20475.632813947315   20475.632813947315   20475.632813947315   20475.632813947315   20475.632813947315   20475.632813947315
-4.4072939341611805   21405.408300396666   21405.408300396666   21405.408300396666   21405.408300396666   21405.408300396666   21405.408300396666
-4.399695814256665   22335.183786846017   22335.183786846017   22335.183786846017   22335.183786846017   22335.183786846017   22335.183786846017
-4.392154990707228   23264.959273295382   23264.959273295382   23264.959273295382   23264.959273295382   23264.959273295382   23264.959273295382
-4.384670605848825   24194.734759744733   24194.734759744733   24194.734759744733   24194.734759744733   24194.734759744733   24194.734759744733
-4.3772418211318875   25124.510246194084   25124.510246194084   25124.510246194084   25124.510246194084   25124.510246194084   25124.510246194084
-4.3698678165575044   26054.285732643453   26054.285732643453   26054.285732643453   26054.285732643453   26054.285732643453   26054.285732643453
-4.362547790134252   26984.061219092822   26984.061219092822   26984.061219092822   26984.061219092822   26984.061219092822   26984.061219092822
-4.355280957354756   27913.83670554217   27913.83670554217   27913.83670554217   27913.83670554217   27913.83670554217   27913.83670554217
-4.348066550691127   28643.5581880474   28643.5581880474   28643.5581880474   28643.5581880474   28643.5581880474   28643.5581880474
-4.340903819108481   29156.353642179456   29156.353642179456   29156.353642179456   29156.353642179456   29156.353642179456   29156.353642179456
-4.333792027595753   29669.149096311514   29669.149096311514   29669.149096311514   29669.149096311514   29669.149096311514   29669.149096311514
-4.3267304567130696   30181.94455044356   30181.94455044356   30181.94455044356   30181.94455044356   30181.94455044356   30181.94455044356
-4.319718402155002   30694.740004575608   30694.740004575608   30694.740004575608   30694.740004575608   30694.740004575608   30694.740004575608
-4.312755174329019   31207.535458707665   31207.535458707665   31207.535458707665   31207.535458707665   31207.535458707665   31207.535458707665
-4.30584009794852   31720.330912839723   31720.330912839723   31720.330912839723   31720.330912839723   31720.330912839723   31720.330912839723
-4.298972511639837   32233.126366971763   32233.126366971763   32233.126366971763   32233.126366971763   32233.126366971763   32233.126366971763
-4.292151767562642   32745.92182110382   32745.92182110382   32745.92182110382   32745.92182110382   32745.92182110382   32745.92182110382
-4.285377231043214   33258.717275235875   33258.717275235875   33258.717275235875   33258.717275235875   33258.717275235875   33258.717275235875
-4.278648280220047   33771.512729367925   33771.512729367925   33771.512729367925   33771.512729367925   33771.512729367925   33771.512729367925
-4.27196430570129   34284.308183499976   34284.308183499976   34284.308183499976   34284.308183499976   34284.308183499976   34284.308183499976
-4.265324710233577   35259.24282463183   35259.24282463183   35259.24282463183   35259.24282463183   35259.24282463183   35259.24282463183
-4.258728908381769   37080.550215768264   37080.550215768264   37080.550215768264   37080.550215768264   37080.550215768264   37080.550215768264
-4.2521763262191845   38901.85760690466   38901.85760690466   38901.85760690466   38901.85760690466   38901.85760690466   38901.85760690466
-4.245666401027921   40723.164998041066   40723.164998041066   40723.164998041066   40723.164998041066   40723.164998041066   40723.164998041066
-4.239198581008869   42544.4723891775   42544.4723891775   42544.4723891775   42544.4723891775   42544.4723891775   42544.4723891775
-4.232772325001035   44365.77978031394   44365.77978031394   44365.77978031394   44365.77978031394   44365.77978031394   44365.77978031394
-4.226387102209833   46187.08717145034   46187.08717145034   46187.08717145034   46187.08717145034   46187.08717145034   46187.08717145034
-4.220042391943997   48008.39456258674   48008.39456258674   48008.39456258674   48008.39456258674   48008.39456258674   48008.39456258674
-4.213737683360774   49829.701953723175   49829.701953723175   49829.701953723175   49829.701953723175   49829.701953723175   49829.701953723175
-4.207472475219122   51651.00934485957   51651.00934485957   51651.00934485957   51651.00934485957   51651.00934485957   51651.00934485957
-4.201246275640565   53472.31673599601   53472.31673599601   53472.31673599601   53472.31673599601   53472.31673599601   53472.31673599601
-4.195058601877471   55293.62412713241   55293.62412713241   55293.62412713241   55293.62412713241   55293.62412713241   55293.62412713241
-4.188908980088435   57114.93151826885   57114.93151826885   57114.93151826885   57114.93151826885   57114.93151826885   57114.93151826885
-4.182796945120543   58936.23890940525   58936.23890940525   58936.23890940525   58936.23890940525   58936.23890940525   58936.23890940525
-4.176722040298239   60757.54630054165   60757.54630054165   60757.54630054165   60757.54630054165   60757.54630054165   60757.54630054165
-4.170683817218569   62578.85369167809   62578.85369167809   62578.85369167809   62578.85369167809   62578.85369167809   62578.85369167809
-4.16468183555257   64400.16108281449   64400.16108281449   64400.16108281449   64400.16108281449   64400.16108281449   64400.16108281449
-4.15871566285259   65598.13916472875   65598.13916472875   65598.13916472875   65598.13916472875   65598.13916472875   65598.13916472875
-4.152784874365308   66392.43731305152   66392.43731305152   66392.43731305152   66392.43731305152   66392.43731305152   66392.43731305152
-4.14688905285028   67186.73546137426   67186.73546137426   67186.73546137426   67186.73546137426   67186.73546137426   67186.73546137426
-4.141027788403798   67981.03360969698   67981.03360969698   67981.03360969698   67981.03360969698   67981.03360969698   67981.03360969698
-4.135200678287871   68775.33175801976   68775.33175801976   68775.33175801976   68775.33175801976   68775.33175801976   68775.33175801976
-4.129407326764185   69569.6299063425   69569.6299063425   69569.6299063425   69569.6299063425   69569.6299063425   69569.6299063425
-4.123647344932811   70363.92805466524   70363.92805466524   70363.92805466524   70363.92805466524   70363.92805466524   70363.92805466524
-4.117920350575565   71158.226202988   71158.226202988   71158.226202988   71158.226202988   71158.226202988   71158.226202988
-4.112225968003802   71952.52435131071   71952.52435131071   71952.52435131071   71952.52435131071   71952.52435131071   71952.52435131071
-4.106563827910535   72746.82249963348   72746.82249963348   72746.82249963348   72746.82249963348   72746.82249963348   72746.82249963348
-4.100933567226714   73541.12064795622   73541.12064795622   73541.12064795622   73541.12064795622   73541.12064795622   73541.12064795622
-4.095334828981518   74335.41879627894   74335.41879627894   74335.41879627894   74335.41879627894   74335.41879627894   74335.41879627894
-4.0897672621665535   75588.04616140103   75588.04616140103   75588.04616140103   75588.04616140103   75588.04616140103   75588.04616140103
-4.084230521603796   77638.53813903772   77638.53813903772   77638.53813903772   77638.53813903772   77638.53813903772   77638.53813903772
-4.078724267817182   79689.03011667434   79689.03011667434   79689.03011667434   79689.03011667434   79689.03011667434   79689.03011667434
-4.073248166907702   81739.52209431112   81739.52209431112   81739.52209431112   81739.52209431112   81739.52209431112   81739.52209431112
-4.06780189043191   83790.01407194773   83790.01407194773   83790.01407194773   83790.01407194773   83790.01407194773   83790.01407194773
-4.062385115283709   85840.50604958442   85840.50604958442   85840.50604958442   85840.50604958442   85840.50604958442   85840.50604958442
-4.056997523579333   87890.99802722113   87890.99802722113   87890.99802722113   87890.99802722113   87890.99802722113   87890.99802722113
-4.051638802545405   89941.49000485774   89941.49000485774   89941.49000485774   89941.49000485774   89941.49000485774   89941.49000485774
-4.046308644409978   91991.98198249444   91991.98198249444   91991.98198249444   91991.98198249444   91991.98198249444   91991.98198249444
-4.041006746296465   94042.47396013114   94042.47396013114   94042.47396013114   94042.47396013114   94042.47396013114   94042.47396013114
-4.035732810120371   96092.96593776776   96092.96593776776   96092.96593776776   96092.96593776776   96092.96593776776   96092.96593776776
-4.030486542488725   98143.45791540446   98143.45791540446   98143.45791540446   98143.45791540446   98143.45791540446   98143.45791540446
-4.025267654602142   100193.94989304115   100193.94989304115   100193.94989304115   100193.94989304115   100193.94989304115   100193.94989304115
-4.020075862159428   102112.17289616501   102112.17289616501   102112.17289616501   102112.17289616501   102112.17289616501   102112.17289616501
-4.014910885264645   103497.47497290904   103497.47497290904   103497.47497290904   103497.47497290904   103497.47497290904   103497.47497290904
-4.009772448336569   104882.77704965298   104882.77704965298   104882.77704965298   104882.77704965298   104882.77704965298   104882.77704965298
-4.004660280020453   106268.07912639697   106268.07912639697   106268.07912639697   106268.07912639697   106268.07912639697   106268.07912639697
-3.999574113102048   107653.38120314098   107653.38120314098   107653.38120314098   107653.38120314098   107653.38120314098   107653.38120314098
-3.9945136844237843   109038.6832798849   109038.6832798849   109038.6832798849   109038.6832798849   109038.6832798849   109038.6832798849
-3.9894787348030722   110423.98535662891   110423.98535662891   110423.98535662891   110423.98535662891   110423.98535662891   110423.98535662891
-3.984469008952651   111809.2874333729   111809.2874333729   111809.2874333729   111809.2874333729   111809.2874333729   111809.2874333729
-3.9794842554029133   113194.58951011684   113194.58951011684   113194.58951011684   113194.58951011684   113194.58951011684   113194.58951011684
-3.974524226426166   114579.89158686087   114579.89158686087   114579.89158686087   114579.89158686087   114579.89158686087   114579.89158686087
-3.9695886779627547   115965.19366360482   115965.19366360482   115965.19366360482   115965.19366360482   115965.19366360482   115965.19366360482
-3.964677369549003   117350.49574034876   117350.49574034876   117350.49574034876   117350.49574034876   117350.49574034876   117350.49574034876
-3.9597900642469144   118735.7978170928   118735.7978170928   118735.7978170928   118735.7978170928   118735.7978170928   118735.7978170928
-3.954926528575582   119830.6652684134   119830.6652684134   119830.6652684134   119830.6652684134   119830.6652684134   119830.6652684134
-3.950086532444259   120628.99082414995   120628.99082414995   120628.99082414995   120628.99082414995   120628.99082414995   120628.99082414995
-3.945269849087041   121427.3163798865   121427.3163798865   121427.3163798865   121427.3163798865   121427.3163798865   121427.3163798865
-3.9404762549991137   122225.64193562302   122225.64193562302   122225.64193562302   122225.64193562302   122225.64193562302   122225.64193562302
-3.935705529874521   123023.96749135955   123023.96749135955   123023.96749135955   123023.96749135955   123023.96749135955   123023.96749135955
-3.9309574565454115   123822.2930470961   123822.2930470961   123822.2930470961   123822.2930470961   123822.2930470961   123822.2930470961
-3.9262318209227196   124620.61860283262   124620.61860283262   124620.61860283262   124620.61860283262   124620.61860283262   124620.61860283262
-3.9215284119382408   125418.94415856918   125418.94415856918   125418.94415856918   125418.94415856918   125418.94415856918   125418.94415856918
-3.916847021488067   126217.2697143057   126217.2697143057   126217.2697143057   126217.2697143057   126217.2697143057   126217.2697143057
-3.9121874443773326   127015.59527004225   127015.59527004225   127015.59527004225   127015.59527004225   127015.59527004225   127015.59527004225
-3.907549478266249   127813.92082577878   127813.92082577878   127813.92082577878   127813.92082577878   127813.92082577878   127813.92082577878
-3.9029329236173815   128612.2463815153   128612.2463815153   128612.2463815153   128612.2463815153   128612.2463815153   128612.2463815153
-3.8983375836441354   129410.57193725185   129410.57193725185   129410.57193725185   129410.57193725185   129410.57193725185   129410.57193725185
-3.8937632642604254   130898.62649253853   130898.62649253853   130898.62649253853   130898.62649253853   130898.62649253853   130898.62649253853
-3.889209774031488   132569.19705501606   132569.19705501606   132569.19705501606   132569.19705501606   132569.19705501606   132569.19705501606
-3.8846769241258072   134239.76761749366   134239.76761749366   134239.76761749366   134239.76761749366   134239.76761749366   134239.76761749366
-3.8801645282681276   135910.33817997127   135910.33817997127   135910.33817997127   135910.33817997127   135910.33817997127   135910.33817997127
-3.875672402693524   137580.9087424488   137580.9087424488   137580.9087424488   137580.9087424488   137580.9087424488   137580.9087424488
-3.8712003661024914   139251.47930492647   139251.47930492647   139251.47930492647   139251.47930492647   139251.47930492647   139251.47930492647
-3.8667482396170443   140922.049867404   140922.049867404   140922.049867404   140922.049867404   140922.049867404   140922.049867404
-3.86231584673778   142592.62042988162   142592.62042988162   142592.62042988162   142592.62042988162   142592.62042988162   142592.62042988162
-3.857903013301895   144263.19099235922   144263.19099235922   144263.19099235922   144263.19099235922   144263.19099235922   144263.19099235922
-3.8535095674421225   145933.76155483676   145933.76155483676   145933.76155483676   145933.76155483676   145933.76155483676   145933.76155483676
-3.849135339546564   147604.33211731433   147604.33211731433   147604.33211731433   147604.33211731433   147604.33211731433   147604.33211731433
